x-axis,1
second,Volt
-5.0000000E+00,-2.9486031E+00
-4.9998400E+00,-2.9687036E+00
-4.9996800E+00,-2.9687036E+00
-4.9995200E+00,-2.9888041E+00
-4.9993600E+00,-2.9687036E+00
-4.9992000E+00,-2.9486031E+00
-4.9990400E+00,-2.9687036E+00
-4.9988800E+00,-2.9486031E+00
-4.9987200E+00,-2.9486031E+00
-4.9985600E+00,-2.9687036E+00
-4.9984000E+00,-2.9687036E+00
-4.9982400E+00,-2.9888041E+00
-4.9980800E+00,-3.0089046E+00
-4.9979200E+00,-2.9687036E+00
-4.9977600E+00,-2.9687036E+00
-4.9976000E+00,-2.9486031E+00
-4.9974400E+00,-2.9486031E+00
-4.9972800E+00,-2.9687036E+00
-4.9971200E+00,-2.9486031E+00
-4.9969600E+00,-2.9687036E+00
-4.9968000E+00,-2.9486031E+00
-4.9966400E+00,-3.0290051E+00
-4.9964800E+00,-2.9687036E+00
-4.9963200E+00,-2.9687036E+00
-4.9961600E+00,-3.0290051E+00
-4.9960000E+00,-2.9888041E+00
-4.9958400E+00,-2.9888041E+00
-4.9956800E+00,-2.9687036E+00
-4.9955200E+00,-2.9888041E+00
-4.9953600E+00,-2.9888041E+00
-4.9952000E+00,-2.9687036E+00
-4.9950400E+00,-2.9687036E+00
-4.9948800E+00,-2.9888041E+00
-4.9947200E+00,-2.9888041E+00
-4.9945600E+00,-2.9687036E+00
-4.9944000E+00,-3.0089046E+00
-4.9942400E+00,-2.9687036E+00
-4.9940800E+00,-2.9687036E+00
-4.9939200E+00,-2.9687036E+00
-4.9937600E+00,-3.0089046E+00
-4.9936000E+00,-2.9687036E+00
-4.9934400E+00,-2.9888041E+00
-4.9932800E+00,-2.9687036E+00
-4.9931200E+00,-2.9486031E+00
-4.9929600E+00,-2.9888041E+00
-4.9928000E+00,-2.9687036E+00
-4.9926400E+00,-2.9687036E+00
-4.9924800E+00,-2.9687036E+00
-4.9923200E+00,-2.9687036E+00
-4.9921600E+00,-2.9687036E+00
-4.9920000E+00,-2.9486031E+00
-4.9918400E+00,-2.9687036E+00
-4.9916800E+00,-2.9285026E+00
-4.9915200E+00,-2.9285026E+00
-4.9913600E+00,-2.9486031E+00
-4.9912000E+00,-2.9285026E+00
-4.9910400E+00,-2.9486031E+00
-4.9908800E+00,-2.9285026E+00
-4.9907200E+00,-2.9285026E+00
-4.9905600E+00,-2.9285026E+00
-4.9904000E+00,-2.9285026E+00
-4.9902400E+00,-2.9486031E+00
-4.9900800E+00,-2.9084021E+00
-4.9899200E+00,-2.9285026E+00
-4.9897600E+00,-2.8883016E+00
-4.9896000E+00,-2.9084021E+00
-4.9894400E+00,-2.9084021E+00
-4.9892800E+00,-2.9084021E+00
-4.9891200E+00,-2.9084021E+00
-4.9889600E+00,-2.8883016E+00
-4.9888000E+00,-2.9084021E+00
-4.9886400E+00,-2.8883016E+00
-4.9884800E+00,-2.8883016E+00
-4.9883200E+00,-2.9084021E+00
-4.9881600E+00,-2.9084021E+00
-4.9880000E+00,-2.8883016E+00
-4.9878400E+00,-2.8481006E+00
-4.9876800E+00,-2.9084021E+00
-4.9875200E+00,-2.9084021E+00
-4.9873600E+00,-2.8682011E+00
-4.9872000E+00,-2.8682011E+00
-4.9870400E+00,-2.9084021E+00
-4.9868800E+00,-2.8481006E+00
-4.9867200E+00,-2.8682011E+00
-4.9865600E+00,-2.8682011E+00
-4.9864000E+00,-2.8682011E+00
-4.9862400E+00,-2.8682011E+00
-4.9860800E+00,-2.8682011E+00
-4.9859200E+00,-2.8682011E+00
-4.9857600E+00,-2.8682011E+00
-4.9856000E+00,-2.8481006E+00
-4.9854400E+00,-2.8682011E+00
-4.9852800E+00,-2.8682011E+00
-4.9851200E+00,-2.8682011E+00
-4.9849600E+00,-2.8682011E+00
-4.9848000E+00,-2.8883016E+00
-4.9846400E+00,-2.8883016E+00
-4.9844800E+00,-2.9084021E+00
-4.9843200E+00,-2.8682011E+00
-4.9841600E+00,-2.8682011E+00
-4.9840000E+00,-2.9084021E+00
-4.9838400E+00,-2.8682011E+00
-4.9836800E+00,-2.8883016E+00
-4.9835200E+00,-2.9084021E+00
-4.9833600E+00,-2.8883016E+00
-4.9832000E+00,-2.9084021E+00
-4.9830400E+00,-2.8682011E+00
-4.9828800E+00,-2.9084021E+00
-4.9827200E+00,-2.8682011E+00
-4.9825600E+00,-2.8682011E+00
-4.9824000E+00,-2.8883016E+00
-4.9822400E+00,-2.9084021E+00
-4.9820800E+00,-2.9084021E+00
-4.9819200E+00,-2.9084021E+00
-4.9817600E+00,-2.9084021E+00
-4.9816000E+00,-2.9084021E+00
-4.9814400E+00,-2.9084021E+00
-4.9812800E+00,-2.9285026E+00
-4.9811200E+00,-2.9285026E+00
-4.9809600E+00,-2.9285026E+00
-4.9808000E+00,-2.9285026E+00
-4.9806400E+00,-2.9285026E+00
-4.9804800E+00,-2.9285026E+00
-4.9803200E+00,-2.9486031E+00
-4.9801600E+00,-2.9687036E+00
-4.9800000E+00,-2.9285026E+00
-4.9798400E+00,-2.9285026E+00
-4.9796800E+00,-2.9888041E+00
-4.9795200E+00,-2.9084021E+00
-4.9793600E+00,-2.9486031E+00
-4.9792000E+00,-2.9687036E+00
-4.9790400E+00,-2.9486031E+00
-4.9788800E+00,-2.9888041E+00
-4.9787200E+00,-2.9687036E+00
-4.9785600E+00,-2.9486031E+00
-4.9784000E+00,-2.9888041E+00
-4.9782400E+00,-2.9888041E+00
-4.9780800E+00,-2.9687036E+00
-4.9779200E+00,-3.0089046E+00
-4.9777600E+00,-2.9687036E+00
-4.9776000E+00,-2.9888041E+00
-4.9774400E+00,-2.9486031E+00
-4.9772800E+00,-2.9486031E+00
-4.9771200E+00,-2.9888041E+00
-4.9769600E+00,-2.9486031E+00
-4.9768000E+00,-3.0089046E+00
-4.9766400E+00,-2.9888041E+00
-4.9764800E+00,-2.9486031E+00
-4.9763200E+00,-2.9888041E+00
-4.9761600E+00,-2.9687036E+00
-4.9760000E+00,-2.9687036E+00
-4.9758400E+00,-2.9888041E+00
-4.9756800E+00,-2.9687036E+00
-4.9755200E+00,-3.0290051E+00
-4.9753600E+00,-2.9486031E+00
-4.9752000E+00,-2.9888041E+00
-4.9750400E+00,-3.0089046E+00
-4.9748800E+00,-2.9687036E+00
-4.9747200E+00,-2.9687036E+00
-4.9745600E+00,-2.9687036E+00
-4.9744000E+00,-2.9687036E+00
-4.9742400E+00,-2.9486031E+00
-4.9740800E+00,-2.9888041E+00
-4.9739200E+00,-2.9687036E+00
-4.9737600E+00,-2.9687036E+00
-4.9736000E+00,-2.9687036E+00
-4.9734400E+00,-2.9687036E+00
-4.9732800E+00,-2.9486031E+00
-4.9731200E+00,-3.0089046E+00
-4.9729600E+00,-2.9888041E+00
-4.9728000E+00,-2.9486031E+00
-4.9726400E+00,-2.9687036E+00
-4.9724800E+00,-2.9687036E+00
-4.9723200E+00,-2.9687036E+00
-4.9721600E+00,-2.9687036E+00
-4.9720000E+00,-2.9687036E+00
-4.9718400E+00,-2.9486031E+00
-4.9716800E+00,-2.9486031E+00
-4.9715200E+00,-2.9486031E+00
-4.9713600E+00,-2.9285026E+00
-4.9712000E+00,-2.9486031E+00
-4.9710400E+00,-2.9486031E+00
-4.9708800E+00,-2.9285026E+00
-4.9707200E+00,-2.9285026E+00
-4.9705600E+00,-2.8883016E+00
-4.9704000E+00,-2.9285026E+00
-4.9702400E+00,-2.9285026E+00
-4.9700800E+00,-2.9285026E+00
-4.9699200E+00,-2.8883016E+00
-4.9697600E+00,-2.9084021E+00
-4.9696000E+00,-2.9084021E+00
-4.9694400E+00,-2.9285026E+00
-4.9692800E+00,-2.8883016E+00
-4.9691200E+00,-2.8883016E+00
-4.9689600E+00,-2.8883016E+00
-4.9688000E+00,-2.8682011E+00
-4.9686400E+00,-2.8682011E+00
-4.9684800E+00,-2.9285026E+00
-4.9683200E+00,-2.8682011E+00
-4.9681600E+00,-2.8682011E+00
-4.9680000E+00,-2.8682011E+00
-4.9678400E+00,-2.9084021E+00
-4.9676800E+00,-2.9084021E+00
-4.9675200E+00,-2.8883016E+00
-4.9673600E+00,-2.8682011E+00
-4.9672000E+00,-2.8883016E+00
-4.9670400E+00,-2.8682011E+00
-4.9668800E+00,-2.8883016E+00
-4.9667200E+00,-2.8280001E+00
-4.9665600E+00,-2.8481006E+00
-4.9664000E+00,-2.8682011E+00
-4.9662400E+00,-2.8682011E+00
-4.9660800E+00,-2.8883016E+00
-4.9659200E+00,-2.8682011E+00
-4.9657600E+00,-2.8682011E+00
-4.9656000E+00,-2.8883016E+00
-4.9654400E+00,-2.8883016E+00
-4.9652800E+00,-2.8682011E+00
-4.9651200E+00,-2.8481006E+00
-4.9649600E+00,-2.8682011E+00
-4.9648000E+00,-2.8682011E+00
-4.9646400E+00,-2.8682011E+00
-4.9644800E+00,-2.8682011E+00
-4.9643200E+00,-2.8883016E+00
-4.9641600E+00,-2.9084021E+00
-4.9640000E+00,-2.8682011E+00
-4.9638400E+00,-2.8481006E+00
-4.9636800E+00,-2.8883016E+00
-4.9635200E+00,-2.8883016E+00
-4.9633600E+00,-2.8883016E+00
-4.9632000E+00,-2.8883016E+00
-4.9630400E+00,-2.9285026E+00
-4.9628800E+00,-2.9285026E+00
-4.9627200E+00,-2.9285026E+00
-4.9625600E+00,-2.9084021E+00
-4.9624000E+00,-2.8883016E+00
-4.9622400E+00,-2.9084021E+00
-4.9620800E+00,-2.9084021E+00
-4.9619200E+00,-2.9285026E+00
-4.9617600E+00,-2.9285026E+00
-4.9616000E+00,-2.9285026E+00
-4.9614400E+00,-2.9285026E+00
-4.9612800E+00,-2.9285026E+00
-4.9611200E+00,-2.9486031E+00
-4.9609600E+00,-2.9285026E+00
-4.9608000E+00,-2.9285026E+00
-4.9606400E+00,-2.9084021E+00
-4.9604800E+00,-2.9486031E+00
-4.9603200E+00,-2.9687036E+00
-4.9601600E+00,-2.9486031E+00
-4.9600000E+00,-2.9486031E+00
-4.9598400E+00,-2.9486031E+00
-4.9596800E+00,-2.9285026E+00
-4.9595200E+00,-2.9285026E+00
-4.9593600E+00,-2.9687036E+00
-4.9592000E+00,-2.9285026E+00
-4.9590400E+00,-2.9888041E+00
-4.9588800E+00,-2.9687036E+00
-4.9587200E+00,-2.9285026E+00
-4.9585600E+00,-2.9285026E+00
-4.9584000E+00,-2.9888041E+00
-4.9582400E+00,-2.9486031E+00
-4.9580800E+00,-2.9687036E+00
-4.9579200E+00,-2.9687036E+00
-4.9577600E+00,-2.9888041E+00
-4.9576000E+00,-2.9888041E+00
-4.9574400E+00,-2.9486031E+00
-4.9572800E+00,-2.9486031E+00
-4.9571200E+00,-2.9486031E+00
-4.9569600E+00,-2.9888041E+00
-4.9568000E+00,-2.9285026E+00
-4.9566400E+00,-2.9687036E+00
-4.9564800E+00,-3.0290051E+00
-4.9563200E+00,-3.0089046E+00
-4.9561600E+00,-2.9888041E+00
-4.9560000E+00,-2.9888041E+00
-4.9558400E+00,-3.0089046E+00
-4.9556800E+00,-2.9888041E+00
-4.9555200E+00,-2.9888041E+00
-4.9553600E+00,-2.9687036E+00
-4.9552000E+00,-3.0089046E+00
-4.9550400E+00,-2.9687036E+00
-4.9548800E+00,-2.9285026E+00
-4.9547200E+00,-2.9486031E+00
-4.9545600E+00,-2.9888041E+00
-4.9544000E+00,-2.9486031E+00
-4.9542400E+00,-2.9888041E+00
-4.9540800E+00,-2.9888041E+00
-4.9539200E+00,-2.9687036E+00
-4.9537600E+00,-3.0089046E+00
-4.9536000E+00,-2.9687036E+00
-4.9534400E+00,-2.9486031E+00
-4.9532800E+00,-2.9486031E+00
-4.9531200E+00,-2.9486031E+00
-4.9529600E+00,-2.9687036E+00
-4.9528000E+00,-2.9888041E+00
-4.9526400E+00,-2.9687036E+00
-4.9524800E+00,-2.9486031E+00
-4.9523200E+00,-2.9486031E+00
-4.9521600E+00,-2.9687036E+00
-4.9520000E+00,-2.9687036E+00
-4.9518400E+00,-2.9084021E+00
-4.9516800E+00,-2.9486031E+00
-4.9515200E+00,-2.9285026E+00
-4.9513600E+00,-2.9285026E+00
-4.9512000E+00,-2.9285026E+00
-4.9510400E+00,-2.9285026E+00
-4.9508800E+00,-2.9486031E+00
-4.9507200E+00,-2.9285026E+00
-4.9505600E+00,-2.9285026E+00
-4.9504000E+00,-2.9084021E+00
-4.9502400E+00,-2.8883016E+00
-4.9500800E+00,-2.9285026E+00
-4.9499200E+00,-2.8883016E+00
-4.9497600E+00,-2.9084021E+00
-4.9496000E+00,-2.8883016E+00
-4.9494400E+00,-2.8682011E+00
-4.9492800E+00,-2.9084021E+00
-4.9491200E+00,-2.8883016E+00
-4.9489600E+00,-2.8883016E+00
-4.9488000E+00,-2.8883016E+00
-4.9486400E+00,-2.8682011E+00
-4.9484800E+00,-2.8682011E+00
-4.9483200E+00,-2.8883016E+00
-4.9481600E+00,-2.8883016E+00
-4.9480000E+00,-2.8883016E+00
-4.9478400E+00,-2.8883016E+00
-4.9476800E+00,-2.8481006E+00
-4.9475200E+00,-2.8682011E+00
-4.9473600E+00,-2.8682011E+00
-4.9472000E+00,-2.8883016E+00
-4.9470400E+00,-2.8883016E+00
-4.9468800E+00,-2.8481006E+00
-4.9467200E+00,-2.8682011E+00
-4.9465600E+00,-2.8682011E+00
-4.9464000E+00,-2.8481006E+00
-4.9462400E+00,-2.8481006E+00
-4.9460800E+00,-2.8883016E+00
-4.9459200E+00,-2.8481006E+00
-4.9457600E+00,-2.9084021E+00
-4.9456000E+00,-2.8481006E+00
-4.9454400E+00,-2.8481006E+00
-4.9452800E+00,-2.8682011E+00
-4.9451200E+00,-2.8883016E+00
-4.9449600E+00,-2.9084021E+00
-4.9448000E+00,-2.8682011E+00
-4.9446400E+00,-2.8883016E+00
-4.9444800E+00,-2.8682011E+00
-4.9443200E+00,-2.8481006E+00
-4.9441600E+00,-2.8883016E+00
-4.9440000E+00,-2.8883016E+00
-4.9438400E+00,-2.8883016E+00
-4.9436800E+00,-2.8883016E+00
-4.9435200E+00,-2.9084021E+00
-4.9433600E+00,-2.8883016E+00
-4.9432000E+00,-2.9084021E+00
-4.9430400E+00,-2.9084021E+00
-4.9428800E+00,-2.8883016E+00
-4.9427200E+00,-2.9084021E+00
-4.9425600E+00,-2.9084021E+00
-4.9424000E+00,-2.8883016E+00
-4.9422400E+00,-2.8883016E+00
-4.9420800E+00,-2.8883016E+00
-4.9419200E+00,-2.9084021E+00
-4.9417600E+00,-2.8883016E+00
-4.9416000E+00,-2.9084021E+00
-4.9414400E+00,-2.9285026E+00
-4.9412800E+00,-2.9084021E+00
-4.9411200E+00,-2.9285026E+00
-4.9409600E+00,-2.9486031E+00
-4.9408000E+00,-2.9084021E+00
-4.9406400E+00,-2.9285026E+00
-4.9404800E+00,-2.9285026E+00
-4.9403200E+00,-2.9486031E+00
-4.9401600E+00,-2.9285026E+00
-4.9400000E+00,-2.9486031E+00
-4.9398400E+00,-2.9285026E+00
-4.9396800E+00,-2.9486031E+00
-4.9395200E+00,-2.9486031E+00
-4.9393600E+00,-2.9285026E+00
-4.9392000E+00,-2.9687036E+00
-4.9390400E+00,-2.9486031E+00
-4.9388800E+00,-2.9687036E+00
-4.9387200E+00,-2.9486031E+00
-4.9385600E+00,-3.0089046E+00
-4.9384000E+00,-2.9687036E+00
-4.9382400E+00,-2.9486031E+00
-4.9380800E+00,-2.9285026E+00
-4.9379200E+00,-2.9888041E+00
-4.9377600E+00,-3.0089046E+00
-4.9376000E+00,-2.9687036E+00
-4.9374400E+00,-2.9687036E+00
-4.9372800E+00,-2.9687036E+00
-4.9371200E+00,-2.9285026E+00
-4.9369600E+00,-2.9888041E+00
-4.9368000E+00,-2.9888041E+00
-4.9366400E+00,-2.9888041E+00
-4.9364800E+00,-2.9888041E+00
-4.9363200E+00,-3.0089046E+00
-4.9361600E+00,-2.9888041E+00
-4.9360000E+00,-2.9888041E+00
-4.9358400E+00,-2.9888041E+00
-4.9356800E+00,-2.9687036E+00
-4.9355200E+00,-2.9888041E+00
-4.9353600E+00,-2.9687036E+00
-4.9352000E+00,-3.0089046E+00
-4.9350400E+00,-2.9888041E+00
-4.9348800E+00,-2.9687036E+00
-4.9347200E+00,-2.9687036E+00
-4.9345600E+00,-2.9888041E+00
-4.9344000E+00,-2.9888041E+00
-4.9342400E+00,-2.9687036E+00
-4.9340800E+00,-2.9687036E+00
-4.9339200E+00,-2.9687036E+00
-4.9337600E+00,-2.9888041E+00
-4.9336000E+00,-2.9888041E+00
-4.9334400E+00,-2.9687036E+00
-4.9332800E+00,-2.9687036E+00
-4.9331200E+00,-2.9687036E+00
-4.9329600E+00,-2.9888041E+00
-4.9328000E+00,-2.9687036E+00
-4.9326400E+00,-2.9888041E+00
-4.9324800E+00,-2.9285026E+00
-4.9323200E+00,-2.9687036E+00
-4.9321600E+00,-2.9486031E+00
-4.9320000E+00,-2.9486031E+00
-4.9318400E+00,-2.9285026E+00
-4.9316800E+00,-2.9486031E+00
-4.9315200E+00,-2.9285026E+00
-4.9313600E+00,-2.9285026E+00
-4.9312000E+00,-2.9084021E+00
-4.9310400E+00,-2.9285026E+00
-4.9308800E+00,-2.9285026E+00
-4.9307200E+00,-2.9084021E+00
-4.9305600E+00,-2.9285026E+00
-4.9304000E+00,-2.9084021E+00
-4.9302400E+00,-2.9084021E+00
-4.9300800E+00,-2.8883016E+00
-4.9299200E+00,-2.9285026E+00
-4.9297600E+00,-2.8481006E+00
-4.9296000E+00,-2.8883016E+00
-4.9294400E+00,-2.9285026E+00
-4.9292800E+00,-2.9084021E+00
-4.9291200E+00,-2.9084021E+00
-4.9289600E+00,-2.9084021E+00
-4.9288000E+00,-2.9084021E+00
-4.9286400E+00,-2.9285026E+00
-4.9284800E+00,-2.8883016E+00
-4.9283200E+00,-2.8883016E+00
-4.9281600E+00,-2.8682011E+00
-4.9280000E+00,-2.9084021E+00
-4.9278400E+00,-2.8682011E+00
-4.9276800E+00,-2.9285026E+00
-4.9275200E+00,-2.8682011E+00
-4.9273600E+00,-2.8682011E+00
-4.9272000E+00,-2.8682011E+00
-4.9270400E+00,-2.8883016E+00
-4.9268800E+00,-2.8883016E+00
-4.9267200E+00,-2.8883016E+00
-4.9265600E+00,-2.8883016E+00
-4.9264000E+00,-2.8682011E+00
-4.9262400E+00,-2.8682011E+00
-4.9260800E+00,-2.9084021E+00
-4.9259200E+00,-2.8481006E+00
-4.9257600E+00,-2.8682011E+00
-4.9256000E+00,-2.8481006E+00
-4.9254400E+00,-2.8883016E+00
-4.9252800E+00,-2.8682011E+00
-4.9251200E+00,-2.8682011E+00
-4.9249600E+00,-2.8883016E+00
-4.9248000E+00,-2.8883016E+00
-4.9246400E+00,-2.8883016E+00
-4.9244800E+00,-2.8682011E+00
-4.9243200E+00,-2.8883016E+00
-4.9241600E+00,-2.8682011E+00
-4.9240000E+00,-2.8883016E+00
-4.9238400E+00,-2.8883016E+00
-4.9236800E+00,-2.8682011E+00
-4.9235200E+00,-2.8682011E+00
-4.9233600E+00,-2.9084021E+00
-4.9232000E+00,-2.9084021E+00
-4.9230400E+00,-2.8883016E+00
-4.9228800E+00,-2.8883016E+00
-4.9227200E+00,-2.9084021E+00
-4.9225600E+00,-2.9084021E+00
-4.9224000E+00,-2.9084021E+00
-4.9222400E+00,-2.8883016E+00
-4.9220800E+00,-2.8883016E+00
-4.9219200E+00,-2.8883016E+00
-4.9217600E+00,-2.9285026E+00
-4.9216000E+00,-2.9084021E+00
-4.9214400E+00,-2.8883016E+00
-4.9212800E+00,-2.9285026E+00
-4.9211200E+00,-2.9285026E+00
-4.9209600E+00,-2.9084021E+00
-4.9208000E+00,-2.9285026E+00
-4.9206400E+00,-2.9285026E+00
-4.9204800E+00,-2.9084021E+00
-4.9203200E+00,-2.9285026E+00
-4.9201600E+00,-2.9687036E+00
-4.9200000E+00,-2.9285026E+00
-4.9198400E+00,-2.9084021E+00
-4.9196800E+00,-2.9084021E+00
-4.9195200E+00,-2.9687036E+00
-4.9193600E+00,-2.9285026E+00
-4.9192000E+00,-2.9687036E+00
-4.9190400E+00,-2.9687036E+00
-4.9188800E+00,-2.9486031E+00
-4.9187200E+00,-2.9486031E+00
-4.9185600E+00,-2.9486031E+00
-4.9184000E+00,-2.9486031E+00
-4.9182400E+00,-2.9687036E+00
-4.9180800E+00,-2.9888041E+00
-4.9179200E+00,-2.9285026E+00
-4.9177600E+00,-2.9888041E+00
-4.9176000E+00,-2.9888041E+00
-4.9174400E+00,-2.9486031E+00
-4.9172800E+00,-2.9687036E+00
-4.9171200E+00,-2.9888041E+00
-4.9169600E+00,-2.9486031E+00
-4.9168000E+00,-2.9888041E+00
-4.9166400E+00,-2.9888041E+00
-4.9164800E+00,-2.9888041E+00
-4.9163200E+00,-2.9687036E+00
-4.9161600E+00,-2.9687036E+00
-4.9160000E+00,-2.9888041E+00
-4.9158400E+00,-3.0089046E+00
-4.9156800E+00,-2.9687036E+00
-4.9155200E+00,-2.9888041E+00
-4.9153600E+00,-2.9084021E+00
-4.9152000E+00,-2.9285026E+00
-4.9150400E+00,-2.9687036E+00
-4.9148800E+00,-2.9888041E+00
-4.9147200E+00,-2.9687036E+00
-4.9145600E+00,-2.9687036E+00
-4.9144000E+00,-2.9888041E+00
-4.9142400E+00,-2.9888041E+00
-4.9140800E+00,-2.9888041E+00
-4.9139200E+00,-2.9486031E+00
-4.9137600E+00,-2.9687036E+00
-4.9136000E+00,-2.9687036E+00
-4.9134400E+00,-2.9486031E+00
-4.9132800E+00,-2.9888041E+00
-4.9131200E+00,-2.9687036E+00
-4.9129600E+00,-2.9888041E+00
-4.9128000E+00,-2.9687036E+00
-4.9126400E+00,-2.9687036E+00
-4.9124800E+00,-2.9687036E+00
-4.9123200E+00,-2.9486031E+00
-4.9121600E+00,-2.9687036E+00
-4.9120000E+00,-2.9687036E+00
-4.9118400E+00,-2.9084021E+00
-4.9116800E+00,-2.9084021E+00
-4.9115200E+00,-2.9285026E+00
-4.9113600E+00,-2.9486031E+00
-4.9112000E+00,-2.9285026E+00
-4.9110400E+00,-2.9084021E+00
-4.9108800E+00,-2.8682011E+00
-4.9107200E+00,-2.9285026E+00
-4.9105600E+00,-2.9285026E+00
-4.9104000E+00,-2.8883016E+00
-4.9102400E+00,-2.9084021E+00
-4.9100800E+00,-2.8883016E+00
-4.9099200E+00,-2.8682011E+00
-4.9097600E+00,-2.9084021E+00
-4.9096000E+00,-2.9084021E+00
-4.9094400E+00,-2.9285026E+00
-4.9092800E+00,-2.9084021E+00
-4.9091200E+00,-2.8883016E+00
-4.9089600E+00,-2.9084021E+00
-4.9088000E+00,-2.9084021E+00
-4.9086400E+00,-2.8682011E+00
-4.9084800E+00,-2.8481006E+00
-4.9083200E+00,-2.8682011E+00
-4.9081600E+00,-2.8682011E+00
-4.9080000E+00,-2.8682011E+00
-4.9078400E+00,-2.9084021E+00
-4.9076800E+00,-2.8682011E+00
-4.9075200E+00,-2.8682011E+00
-4.9073600E+00,-2.8682011E+00
-4.9072000E+00,-2.8682011E+00
-4.9070400E+00,-2.8682011E+00
-4.9068800E+00,-2.8883016E+00
-4.9067200E+00,-2.8481006E+00
-4.9065600E+00,-2.8883016E+00
-4.9064000E+00,-2.8682011E+00
-4.9062400E+00,-2.8682011E+00
-4.9060800E+00,-2.8682011E+00
-4.9059200E+00,-2.9084021E+00
-4.9057600E+00,-2.8682011E+00
-4.9056000E+00,-2.8481006E+00
-4.9054400E+00,-2.8481006E+00
-4.9052800E+00,-2.8682011E+00
-4.9051200E+00,-2.8682011E+00
-4.9049600E+00,-2.8682011E+00
-4.9048000E+00,-2.9084021E+00
-4.9046400E+00,-2.8682011E+00
-4.9044800E+00,-2.8682011E+00
-4.9043200E+00,-2.8682011E+00
-4.9041600E+00,-2.8682011E+00
-4.9040000E+00,-2.8481006E+00
-4.9038400E+00,-2.8883016E+00
-4.9036800E+00,-2.8883016E+00
-4.9035200E+00,-2.8883016E+00
-4.9033600E+00,-2.8481006E+00
-4.9032000E+00,-2.8682011E+00
-4.9030400E+00,-2.8883016E+00
-4.9028800E+00,-2.8682011E+00
-4.9027200E+00,-2.8883016E+00
-4.9025600E+00,-2.9084021E+00
-4.9024000E+00,-2.8883016E+00
-4.9022400E+00,-2.8883016E+00
-4.9020800E+00,-2.9084021E+00
-4.9019200E+00,-2.9084021E+00
-4.9017600E+00,-2.8883016E+00
-4.9016000E+00,-2.9084021E+00
-4.9014400E+00,-2.9285026E+00
-4.9012800E+00,-2.9084021E+00
-4.9011200E+00,-2.9486031E+00
-4.9009600E+00,-2.9084021E+00
-4.9008000E+00,-2.9084021E+00
-4.9006400E+00,-2.9285026E+00
-4.9004800E+00,-2.9084021E+00
-4.9003200E+00,-2.9285026E+00
-4.9001600E+00,-2.9285026E+00
-4.9000000E+00,-2.9687036E+00
-4.8998400E+00,-2.9687036E+00
-4.8996800E+00,-2.9888041E+00
-4.8995200E+00,-2.9285026E+00
-4.8993600E+00,-2.9687036E+00
-4.8992000E+00,-2.9486031E+00
-4.8990400E+00,-2.9486031E+00
-4.8988800E+00,-2.9888041E+00
-4.8987200E+00,-2.9285026E+00
-4.8985600E+00,-2.9888041E+00
-4.8984000E+00,-2.9486031E+00
-4.8982400E+00,-2.9285026E+00
-4.8980800E+00,-2.9687036E+00
-4.8979200E+00,-3.0089046E+00
-4.8977600E+00,-2.9486031E+00
-4.8976000E+00,-2.9888041E+00
-4.8974400E+00,-2.9486031E+00
-4.8972800E+00,-2.9486031E+00
-4.8971200E+00,-2.9687036E+00
-4.8969600E+00,-2.9687036E+00
-4.8968000E+00,-2.9687036E+00
-4.8966400E+00,-3.0290051E+00
-4.8964800E+00,-2.9687036E+00
-4.8963200E+00,-2.9888041E+00
-4.8961600E+00,-3.0089046E+00
-4.8960000E+00,-2.9687036E+00
-4.8958400E+00,-2.9687036E+00
-4.8956800E+00,-2.9888041E+00
-4.8955200E+00,-3.0089046E+00
-4.8953600E+00,-2.9486031E+00
-4.8952000E+00,-2.9888041E+00
-4.8950400E+00,-2.9888041E+00
-4.8948800E+00,-2.9486031E+00
-4.8947200E+00,-2.9687036E+00
-4.8945600E+00,-2.9486031E+00
-4.8944000E+00,-2.9888041E+00
-4.8942400E+00,-2.9687036E+00
-4.8940800E+00,-2.9687036E+00
-4.8939200E+00,-3.0089046E+00
-4.8937600E+00,-2.9888041E+00
-4.8936000E+00,-2.9687036E+00
-4.8934400E+00,-2.9486031E+00
-4.8932800E+00,-2.9486031E+00
-4.8931200E+00,-2.9486031E+00
-4.8929600E+00,-2.9687036E+00
-4.8928000E+00,-2.9486031E+00
-4.8926400E+00,-2.9687036E+00
-4.8924800E+00,-2.9687036E+00
-4.8923200E+00,-2.9486031E+00
-4.8921600E+00,-2.9486031E+00
-4.8920000E+00,-2.9285026E+00
-4.8918400E+00,-2.9486031E+00
-4.8916800E+00,-2.9285026E+00
-4.8915200E+00,-2.9687036E+00
-4.8913600E+00,-2.9486031E+00
-4.8912000E+00,-2.9084021E+00
-4.8910400E+00,-2.9285026E+00
-4.8908800E+00,-2.9285026E+00
-4.8907200E+00,-2.9285026E+00
-4.8905600E+00,-2.9285026E+00
-4.8904000E+00,-2.9285026E+00
-4.8902400E+00,-2.9084021E+00
-4.8900800E+00,-2.8883016E+00
-4.8899200E+00,-2.9084021E+00
-4.8897600E+00,-2.9084021E+00
-4.8896000E+00,-2.8682011E+00
-4.8894400E+00,-2.8682011E+00
-4.8892800E+00,-2.8682011E+00
-4.8891200E+00,-2.8883016E+00
-4.8889600E+00,-2.8682011E+00
-4.8888000E+00,-2.8883016E+00
-4.8886400E+00,-2.8883016E+00
-4.8884800E+00,-2.8883016E+00
-4.8883200E+00,-2.8883016E+00
-4.8881600E+00,-2.8682011E+00
-4.8880000E+00,-2.8682011E+00
-4.8878400E+00,-2.9084021E+00
-4.8876800E+00,-2.8883016E+00
-4.8875200E+00,-2.8883016E+00
-4.8873600E+00,-2.8682011E+00
-4.8872000E+00,-2.8481006E+00
-4.8870400E+00,-2.8682011E+00
-4.8868800E+00,-2.8481006E+00
-4.8867200E+00,-2.8682011E+00
-4.8865600E+00,-2.8682011E+00
-4.8864000E+00,-2.8481006E+00
-4.8862400E+00,-2.8682011E+00
-4.8860800E+00,-2.8682011E+00
-4.8859200E+00,-2.8883016E+00
-4.8857600E+00,-2.8883016E+00
-4.8856000E+00,-2.8883016E+00
-4.8854400E+00,-2.8682011E+00
-4.8852800E+00,-2.8682011E+00
-4.8851200E+00,-2.8481006E+00
-4.8849600E+00,-2.8481006E+00
-4.8848000E+00,-2.8481006E+00
-4.8846400E+00,-2.8682011E+00
-4.8844800E+00,-2.9084021E+00
-4.8843200E+00,-2.8883016E+00
-4.8841600E+00,-2.8883016E+00
-4.8840000E+00,-2.8682011E+00
-4.8838400E+00,-2.8481006E+00
-4.8836800E+00,-2.8883016E+00
-4.8835200E+00,-2.8883016E+00
-4.8833600E+00,-2.8883016E+00
-4.8832000E+00,-2.9084021E+00
-4.8830400E+00,-2.8682011E+00
-4.8828800E+00,-2.8883016E+00
-4.8827200E+00,-2.8883016E+00
-4.8825600E+00,-2.8883016E+00
-4.8824000E+00,-2.9084021E+00
-4.8822400E+00,-2.9084021E+00
-4.8820800E+00,-2.8883016E+00
-4.8819200E+00,-2.8883016E+00
-4.8817600E+00,-2.9084021E+00
-4.8816000E+00,-2.9084021E+00
-4.8814400E+00,-2.9084021E+00
-4.8812800E+00,-2.9084021E+00
-4.8811200E+00,-2.9486031E+00
-4.8809600E+00,-2.9084021E+00
-4.8808000E+00,-2.9486031E+00
-4.8806400E+00,-2.9285026E+00
-4.8804800E+00,-2.8883016E+00
-4.8803200E+00,-2.9285026E+00
-4.8801600E+00,-2.9285026E+00
-4.8800000E+00,-2.9285026E+00
-4.8798400E+00,-2.9486031E+00
-4.8796800E+00,-2.9687036E+00
-4.8795200E+00,-2.9687036E+00
-4.8793600E+00,-2.9486031E+00
-4.8792000E+00,-2.9486031E+00
-4.8790400E+00,-2.9285026E+00
-4.8788800E+00,-2.9285026E+00
-4.8787200E+00,-2.9486031E+00
-4.8785600E+00,-2.9687036E+00
-4.8784000E+00,-2.9687036E+00
-4.8782400E+00,-2.9687036E+00
-4.8780800E+00,-2.9687036E+00
-4.8779200E+00,-2.9687036E+00
-4.8777600E+00,-2.9285026E+00
-4.8776000E+00,-2.9888041E+00
-4.8774400E+00,-2.9285026E+00
-4.8772800E+00,-2.9687036E+00
-4.8771200E+00,-2.9687036E+00
-4.8769600E+00,-2.9687036E+00
-4.8768000E+00,-2.9285026E+00
-4.8766400E+00,-2.9285026E+00
-4.8764800E+00,-2.9888041E+00
-4.8763200E+00,-2.9486031E+00
-4.8761600E+00,-2.9486031E+00
-4.8760000E+00,-2.9687036E+00
-4.8758400E+00,-3.0089046E+00
-4.8756800E+00,-2.9486031E+00
-4.8755200E+00,-2.9888041E+00
-4.8753600E+00,-2.9687036E+00
-4.8752000E+00,-2.9687036E+00
-4.8750400E+00,-2.9486031E+00
-4.8748800E+00,-2.9687036E+00
-4.8747200E+00,-2.9687036E+00
-4.8745600E+00,-2.9687036E+00
-4.8744000E+00,-2.9486031E+00
-4.8742400E+00,-2.9687036E+00
-4.8740800E+00,-2.9687036E+00
-4.8739200E+00,-2.9687036E+00
-4.8737600E+00,-2.9687036E+00
-4.8736000E+00,-2.9888041E+00
-4.8734400E+00,-2.9486031E+00
-4.8732800E+00,-2.9888041E+00
-4.8731200E+00,-2.9486031E+00
-4.8729600E+00,-2.9687036E+00
-4.8728000E+00,-2.9486031E+00
-4.8726400E+00,-2.9486031E+00
-4.8724800E+00,-2.9486031E+00
-4.8723200E+00,-2.9486031E+00
-4.8721600E+00,-2.9486031E+00
-4.8720000E+00,-2.9687036E+00
-4.8718400E+00,-2.9486031E+00
-4.8716800E+00,-2.9486031E+00
-4.8715200E+00,-2.9084021E+00
-4.8713600E+00,-2.9486031E+00
-4.8712000E+00,-2.9486031E+00
-4.8710400E+00,-2.9285026E+00
-4.8708800E+00,-2.9084021E+00
-4.8707200E+00,-2.9285026E+00
-4.8705600E+00,-2.9285026E+00
-4.8704000E+00,-2.9285026E+00
-4.8702400E+00,-2.9084021E+00
-4.8700800E+00,-2.8883016E+00
-4.8699200E+00,-2.8883016E+00
-4.8697600E+00,-2.8883016E+00
-4.8696000E+00,-2.9285026E+00
-4.8694400E+00,-2.8883016E+00
-4.8692800E+00,-2.8481006E+00
-4.8691200E+00,-2.9084021E+00
-4.8689600E+00,-2.8883016E+00
-4.8688000E+00,-2.8883016E+00
-4.8686400E+00,-2.8883016E+00
-4.8684800E+00,-2.9084021E+00
-4.8683200E+00,-2.8481006E+00
-4.8681600E+00,-2.8883016E+00
-4.8680000E+00,-2.8682011E+00
-4.8678400E+00,-2.8883016E+00
-4.8676800E+00,-2.9285026E+00
-4.8675200E+00,-2.8481006E+00
-4.8673600E+00,-2.8682011E+00
-4.8672000E+00,-2.8280001E+00
-4.8670400E+00,-2.8481006E+00
-4.8668800E+00,-2.8481006E+00
-4.8667200E+00,-2.8883016E+00
-4.8665600E+00,-2.8682011E+00
-4.8664000E+00,-2.9084021E+00
-4.8662400E+00,-2.8481006E+00
-4.8660800E+00,-2.8883016E+00
-4.8659200E+00,-2.8883016E+00
-4.8657600E+00,-2.9084021E+00
-4.8656000E+00,-2.8883016E+00
-4.8654400E+00,-2.8682011E+00
-4.8652800E+00,-2.8883016E+00
-4.8651200E+00,-2.8682011E+00
-4.8649600E+00,-2.8481006E+00
-4.8648000E+00,-2.8883016E+00
-4.8646400E+00,-2.8682011E+00
-4.8644800E+00,-2.8481006E+00
-4.8643200E+00,-2.8682011E+00
-4.8641600E+00,-2.8682011E+00
-4.8640000E+00,-2.8883016E+00
-4.8638400E+00,-2.8883016E+00
-4.8636800E+00,-2.8682011E+00
-4.8635200E+00,-2.8883016E+00
-4.8633600E+00,-2.9084021E+00
-4.8632000E+00,-2.8883016E+00
-4.8630400E+00,-2.8883016E+00
-4.8628800E+00,-2.8883016E+00
-4.8627200E+00,-2.8883016E+00
-4.8625600E+00,-2.9084021E+00
-4.8624000E+00,-2.9285026E+00
-4.8622400E+00,-2.8682011E+00
-4.8620800E+00,-2.8883016E+00
-4.8619200E+00,-2.9084021E+00
-4.8617600E+00,-2.9084021E+00
-4.8616000E+00,-2.9285026E+00
-4.8614400E+00,-2.9285026E+00
-4.8612800E+00,-2.9285026E+00
-4.8611200E+00,-2.9084021E+00
-4.8609600E+00,-2.9486031E+00
-4.8608000E+00,-2.9486031E+00
-4.8606400E+00,-2.9285026E+00
-4.8604800E+00,-2.9285026E+00
-4.8603200E+00,-2.9486031E+00
-4.8601600E+00,-2.9285026E+00
-4.8600000E+00,-2.9486031E+00
-4.8598400E+00,-2.9084021E+00
-4.8596800E+00,-2.9486031E+00
-4.8595200E+00,-2.9486031E+00
-4.8593600E+00,-2.9687036E+00
-4.8592000E+00,-2.9888041E+00
-4.8590400E+00,-2.9285026E+00
-4.8588800E+00,-2.9687036E+00
-4.8587200E+00,-2.9285026E+00
-4.8585600E+00,-2.9486031E+00
-4.8584000E+00,-2.9888041E+00
-4.8582400E+00,-2.9486031E+00
-4.8580800E+00,-2.9486031E+00
-4.8579200E+00,-2.9687036E+00
-4.8577600E+00,-2.9687036E+00
-4.8576000E+00,-2.9687036E+00
-4.8574400E+00,-2.9888041E+00
-4.8572800E+00,-2.9687036E+00
-4.8571200E+00,-3.0089046E+00
-4.8569600E+00,-2.9486031E+00
-4.8568000E+00,-2.9687036E+00
-4.8566400E+00,-2.9285026E+00
-4.8564800E+00,-2.9687036E+00
-4.8563200E+00,-2.9687036E+00
-4.8561600E+00,-2.9687036E+00
-4.8560000E+00,-2.9687036E+00
-4.8558400E+00,-3.0089046E+00
-4.8556800E+00,-2.9888041E+00
-4.8555200E+00,-2.9486031E+00
-4.8553600E+00,-3.0089046E+00
-4.8552000E+00,-2.9687036E+00
-4.8550400E+00,-2.9687036E+00
-4.8548800E+00,-2.9687036E+00
-4.8547200E+00,-2.9888041E+00
-4.8545600E+00,-2.9687036E+00
-4.8544000E+00,-2.9687036E+00
-4.8542400E+00,-2.9687036E+00
-4.8540800E+00,-2.9888041E+00
-4.8539200E+00,-2.9888041E+00
-4.8537600E+00,-2.9486031E+00
-4.8536000E+00,-2.9888041E+00
-4.8534400E+00,-2.9486031E+00
-4.8532800E+00,-2.9486031E+00
-4.8531200E+00,-2.9888041E+00
-4.8529600E+00,-2.9687036E+00
-4.8528000E+00,-2.9687036E+00
-4.8526400E+00,-2.9687036E+00
-4.8524800E+00,-2.9687036E+00
-4.8523200E+00,-2.9486031E+00
-4.8521600E+00,-2.9285026E+00
-4.8520000E+00,-2.9888041E+00
-4.8518400E+00,-2.9687036E+00
-4.8516800E+00,-2.9486031E+00
-4.8515200E+00,-2.9486031E+00
-4.8513600E+00,-2.9285026E+00
-4.8512000E+00,-2.9285026E+00
-4.8510400E+00,-2.9285026E+00
-4.8508800E+00,-2.9486031E+00
-4.8507200E+00,-2.9084021E+00
-4.8505600E+00,-2.9486031E+00
-4.8504000E+00,-2.9285026E+00
-4.8502400E+00,-2.9084021E+00
-4.8500800E+00,-2.9084021E+00
-4.8499200E+00,-2.9084021E+00
-4.8497600E+00,-2.8682011E+00
-4.8496000E+00,-2.9084021E+00
-4.8494400E+00,-2.8883016E+00
-4.8492800E+00,-2.9285026E+00
-4.8491200E+00,-2.9285026E+00
-4.8489600E+00,-2.9084021E+00
-4.8488000E+00,-2.9084021E+00
-4.8486400E+00,-2.8682011E+00
-4.8484800E+00,-2.8883016E+00
-4.8483200E+00,-2.8883016E+00
-4.8481600E+00,-2.8481006E+00
-4.8480000E+00,-2.8481006E+00
-4.8478400E+00,-2.9084021E+00
-4.8476800E+00,-2.8883016E+00
-4.8475200E+00,-2.8883016E+00
-4.8473600E+00,-2.9084021E+00
-4.8472000E+00,-2.9084021E+00
-4.8470400E+00,-2.9084021E+00
-4.8468800E+00,-2.9084021E+00
-4.8467200E+00,-2.8481006E+00
-4.8465600E+00,-2.8682011E+00
-4.8464000E+00,-2.8682011E+00
-4.8462400E+00,-2.8280001E+00
-4.8460800E+00,-2.9084021E+00
-4.8459200E+00,-2.8883016E+00
-4.8457600E+00,-2.8682011E+00
-4.8456000E+00,-2.8481006E+00
-4.8454400E+00,-2.8682011E+00
-4.8452800E+00,-2.8682011E+00
-4.8451200E+00,-2.8280001E+00
-4.8449600E+00,-2.8481006E+00
-4.8448000E+00,-2.8883016E+00
-4.8446400E+00,-2.8883016E+00
-4.8444800E+00,-2.8682011E+00
-4.8443200E+00,-2.9084021E+00
-4.8441600E+00,-2.8682011E+00
-4.8440000E+00,-2.8883016E+00
-4.8438400E+00,-2.8682011E+00
-4.8436800E+00,-2.8682011E+00
-4.8435200E+00,-2.8883016E+00
-4.8433600E+00,-2.8682011E+00
-4.8432000E+00,-2.8682011E+00
-4.8430400E+00,-2.8883016E+00
-4.8428800E+00,-2.8883016E+00
-4.8427200E+00,-2.8682011E+00
-4.8425600E+00,-2.8883016E+00
-4.8424000E+00,-2.8682011E+00
-4.8422400E+00,-2.8883016E+00
-4.8420800E+00,-2.9084021E+00
-4.8419200E+00,-2.9285026E+00
-4.8417600E+00,-2.9285026E+00
-4.8416000E+00,-2.9285026E+00
-4.8414400E+00,-2.8883016E+00
-4.8412800E+00,-2.9084021E+00
-4.8411200E+00,-2.8883016E+00
-4.8409600E+00,-2.9084021E+00
-4.8408000E+00,-2.8883016E+00
-4.8406400E+00,-2.9084021E+00
-4.8404800E+00,-2.9486031E+00
-4.8403200E+00,-2.9285026E+00
-4.8401600E+00,-2.9084021E+00
-4.8400000E+00,-2.9084021E+00
-4.8398400E+00,-2.9285026E+00
-4.8396800E+00,-2.9285026E+00
-4.8395200E+00,-2.9486031E+00
-4.8393600E+00,-2.9486031E+00
-4.8392000E+00,-2.9687036E+00
-4.8390400E+00,-2.9687036E+00
-4.8388800E+00,-2.9285026E+00
-4.8387200E+00,-2.9687036E+00
-4.8385600E+00,-2.9687036E+00
-4.8384000E+00,-2.9687036E+00
-4.8382400E+00,-2.9888041E+00
-4.8380800E+00,-2.9888041E+00
-4.8379200E+00,-2.9687036E+00
-4.8377600E+00,-2.9486031E+00
-4.8376000E+00,-2.9888041E+00
-4.8374400E+00,-2.9486031E+00
-4.8372800E+00,-2.9486031E+00
-4.8371200E+00,-2.9687036E+00
-4.8369600E+00,-2.9285026E+00
-4.8368000E+00,-2.9888041E+00
-4.8366400E+00,-2.9888041E+00
-4.8364800E+00,-2.9486031E+00
-4.8363200E+00,-2.9687036E+00
-4.8361600E+00,-2.9486031E+00
-4.8360000E+00,-2.9486031E+00
-4.8358400E+00,-2.9486031E+00
-4.8356800E+00,-3.0089046E+00
-4.8355200E+00,-2.9687036E+00
-4.8353600E+00,-2.9687036E+00
-4.8352000E+00,-2.9687036E+00
-4.8350400E+00,-2.9687036E+00
-4.8348800E+00,-2.9687036E+00
-4.8347200E+00,-2.9888041E+00
-4.8345600E+00,-2.9687036E+00
-4.8344000E+00,-2.9687036E+00
-4.8342400E+00,-2.9888041E+00
-4.8340800E+00,-2.9888041E+00
-4.8339200E+00,-2.9687036E+00
-4.8337600E+00,-2.9888041E+00
-4.8336000E+00,-2.9888041E+00
-4.8334400E+00,-2.9285026E+00
-4.8332800E+00,-2.9687036E+00
-4.8331200E+00,-2.9888041E+00
-4.8329600E+00,-2.9687036E+00
-4.8328000E+00,-2.9084021E+00
-4.8326400E+00,-2.9486031E+00
-4.8324800E+00,-2.9285026E+00
-4.8323200E+00,-2.9486031E+00
-4.8321600E+00,-2.9285026E+00
-4.8320000E+00,-2.9486031E+00
-4.8318400E+00,-2.9285026E+00
-4.8316800E+00,-2.9486031E+00
-4.8315200E+00,-2.9285026E+00
-4.8313600E+00,-2.9084021E+00
-4.8312000E+00,-2.9285026E+00
-4.8310400E+00,-2.9486031E+00
-4.8308800E+00,-2.9084021E+00
-4.8307200E+00,-2.9285026E+00
-4.8305600E+00,-2.9285026E+00
-4.8304000E+00,-2.9285026E+00
-4.8302400E+00,-2.9084021E+00
-4.8300800E+00,-2.8883016E+00
-4.8299200E+00,-2.9084021E+00
-4.8297600E+00,-2.9084021E+00
-4.8296000E+00,-2.8682011E+00
-4.8294400E+00,-2.9285026E+00
-4.8292800E+00,-2.8883016E+00
-4.8291200E+00,-2.8682011E+00
-4.8289600E+00,-2.8883016E+00
-4.8288000E+00,-2.8682011E+00
-4.8286400E+00,-2.9084021E+00
-4.8284800E+00,-2.8883016E+00
-4.8283200E+00,-2.8682011E+00
-4.8281600E+00,-2.8883016E+00
-4.8280000E+00,-2.8280001E+00
-4.8278400E+00,-2.8481006E+00
-4.8276800E+00,-2.8682011E+00
-4.8275200E+00,-2.8883016E+00
-4.8273600E+00,-2.8883016E+00
-4.8272000E+00,-2.8883016E+00
-4.8270400E+00,-2.8883016E+00
-4.8268800E+00,-2.8682011E+00
-4.8267200E+00,-2.9084021E+00
-4.8265600E+00,-2.8883016E+00
-4.8264000E+00,-2.8682011E+00
-4.8262400E+00,-2.8481006E+00
-4.8260800E+00,-2.8481006E+00
-4.8259200E+00,-2.8883016E+00
-4.8257600E+00,-2.8682011E+00
-4.8256000E+00,-2.8682011E+00
-4.8254400E+00,-2.8883016E+00
-4.8252800E+00,-2.9084021E+00
-4.8251200E+00,-2.8682011E+00
-4.8249600E+00,-2.8883016E+00
-4.8248000E+00,-2.8682011E+00
-4.8246400E+00,-2.8682011E+00
-4.8244800E+00,-2.8481006E+00
-4.8243200E+00,-2.8481006E+00
-4.8241600E+00,-2.8682011E+00
-4.8240000E+00,-2.8481006E+00
-4.8238400E+00,-2.8883016E+00
-4.8236800E+00,-2.8682011E+00
-4.8235200E+00,-2.8280001E+00
-4.8233600E+00,-2.8883016E+00
-4.8232000E+00,-2.8883016E+00
-4.8230400E+00,-2.8682011E+00
-4.8228800E+00,-2.8682011E+00
-4.8227200E+00,-2.8682011E+00
-4.8225600E+00,-2.8883016E+00
-4.8224000E+00,-2.8883016E+00
-4.8222400E+00,-2.9084021E+00
-4.8220800E+00,-2.8883016E+00
-4.8219200E+00,-2.8883016E+00
-4.8217600E+00,-2.9084021E+00
-4.8216000E+00,-2.8883016E+00
-4.8214400E+00,-2.8883016E+00
-4.8212800E+00,-2.9084021E+00
-4.8211200E+00,-2.8883016E+00
-4.8209600E+00,-2.9285026E+00
-4.8208000E+00,-2.8883016E+00
-4.8206400E+00,-2.9084021E+00
-4.8204800E+00,-2.9084021E+00
-4.8203200E+00,-2.9285026E+00
-4.8201600E+00,-2.9084021E+00
-4.8200000E+00,-2.9486031E+00
-4.8198400E+00,-2.9084021E+00
-4.8196800E+00,-2.9285026E+00
-4.8195200E+00,-2.9486031E+00
-4.8193600E+00,-2.9486031E+00
-4.8192000E+00,-2.9687036E+00
-4.8190400E+00,-2.9285026E+00
-4.8188800E+00,-2.9687036E+00
-4.8187200E+00,-2.9687036E+00
-4.8185600E+00,-2.9486031E+00
-4.8184000E+00,-2.9888041E+00
-4.8182400E+00,-2.9687036E+00
-4.8180800E+00,-2.9486031E+00
-4.8179200E+00,-2.9888041E+00
-4.8177600E+00,-2.9687036E+00
-4.8176000E+00,-2.9687036E+00
-4.8174400E+00,-2.9687036E+00
-4.8172800E+00,-2.9285026E+00
-4.8171200E+00,-3.0089046E+00
-4.8169600E+00,-2.9888041E+00
-4.8168000E+00,-2.9687036E+00
-4.8166400E+00,-2.9687036E+00
-4.8164800E+00,-2.9687036E+00
-4.8163200E+00,-2.9888041E+00
-4.8161600E+00,-2.9687036E+00
-4.8160000E+00,-2.9687036E+00
-4.8158400E+00,-3.0089046E+00
-4.8156800E+00,-2.9285026E+00
-4.8155200E+00,-2.9687036E+00
-4.8153600E+00,-3.0089046E+00
-4.8152000E+00,-3.0089046E+00
-4.8150400E+00,-2.9888041E+00
-4.8148800E+00,-2.9486031E+00
-4.8147200E+00,-2.9888041E+00
-4.8145600E+00,-2.9888041E+00
-4.8144000E+00,-2.9486031E+00
-4.8142400E+00,-2.9687036E+00
-4.8140800E+00,-2.9687036E+00
-4.8139200E+00,-2.9687036E+00
-4.8137600E+00,-2.9687036E+00
-4.8136000E+00,-2.9888041E+00
-4.8134400E+00,-2.9888041E+00
-4.8132800E+00,-2.9486031E+00
-4.8131200E+00,-2.9888041E+00
-4.8129600E+00,-2.9687036E+00
-4.8128000E+00,-2.9486031E+00
-4.8126400E+00,-2.9687036E+00
-4.8124800E+00,-2.9486031E+00
-4.8123200E+00,-2.9687036E+00
-4.8121600E+00,-2.9285026E+00
-4.8120000E+00,-2.9687036E+00
-4.8118400E+00,-2.9285026E+00
-4.8116800E+00,-2.9084021E+00
-4.8115200E+00,-2.9285026E+00
-4.8113600E+00,-2.9486031E+00
-4.8112000E+00,-2.9486031E+00
-4.8110400E+00,-2.9084021E+00
-4.8108800E+00,-2.9084021E+00
-4.8107200E+00,-2.9285026E+00
-4.8105600E+00,-2.9285026E+00
-4.8104000E+00,-2.8883016E+00
-4.8102400E+00,-2.9084021E+00
-4.8100800E+00,-2.8682011E+00
-4.8099200E+00,-2.9084021E+00
-4.8097600E+00,-2.9285026E+00
-4.8096000E+00,-2.9084021E+00
-4.8094400E+00,-2.8883016E+00
-4.8092800E+00,-2.8883016E+00
-4.8091200E+00,-2.8883016E+00
-4.8089600E+00,-2.8682011E+00
-4.8088000E+00,-2.8883016E+00
-4.8086400E+00,-2.8883016E+00
-4.8084800E+00,-2.8682011E+00
-4.8083200E+00,-2.8682011E+00
-4.8081600E+00,-2.8883016E+00
-4.8080000E+00,-2.8682011E+00
-4.8078400E+00,-2.8481006E+00
-4.8076800E+00,-2.8883016E+00
-4.8075200E+00,-2.8682011E+00
-4.8073600E+00,-2.8883016E+00
-4.8072000E+00,-2.8682011E+00
-4.8070400E+00,-2.8682011E+00
-4.8068800E+00,-2.8481006E+00
-4.8067200E+00,-2.8682011E+00
-4.8065600E+00,-2.8682011E+00
-4.8064000E+00,-2.8883016E+00
-4.8062400E+00,-2.8883016E+00
-4.8060800E+00,-2.8682011E+00
-4.8059200E+00,-2.8883016E+00
-4.8057600E+00,-2.8682011E+00
-4.8056000E+00,-2.8682011E+00
-4.8054400E+00,-2.8682011E+00
-4.8052800E+00,-2.8481006E+00
-4.8051200E+00,-2.8682011E+00
-4.8049600E+00,-2.8883016E+00
-4.8048000E+00,-2.8682011E+00
-4.8046400E+00,-2.8883016E+00
-4.8044800E+00,-2.8883016E+00
-4.8043200E+00,-2.8883016E+00
-4.8041600E+00,-2.8682011E+00
-4.8040000E+00,-2.8481006E+00
-4.8038400E+00,-2.8883016E+00
-4.8036800E+00,-2.8481006E+00
-4.8035200E+00,-2.8883016E+00
-4.8033600E+00,-2.8682011E+00
-4.8032000E+00,-2.8883016E+00
-4.8030400E+00,-2.8883016E+00
-4.8028800E+00,-2.9084021E+00
-4.8027200E+00,-2.8682011E+00
-4.8025600E+00,-2.8883016E+00
-4.8024000E+00,-2.8883016E+00
-4.8022400E+00,-2.9084021E+00
-4.8020800E+00,-2.8682011E+00
-4.8019200E+00,-2.8883016E+00
-4.8017600E+00,-2.9285026E+00
-4.8016000E+00,-2.9084021E+00
-4.8014400E+00,-2.9084021E+00
-4.8012800E+00,-2.8883016E+00
-4.8011200E+00,-2.9285026E+00
-4.8009600E+00,-2.9486031E+00
-4.8008000E+00,-2.9486031E+00
-4.8006400E+00,-2.9084021E+00
-4.8004800E+00,-2.9285026E+00
-4.8003200E+00,-2.9285026E+00
-4.8001600E+00,-2.9285026E+00
-4.8000000E+00,-2.9687036E+00
-4.7998400E+00,-2.9486031E+00
-4.7996800E+00,-2.9687036E+00
-4.7995200E+00,-2.9285026E+00
-4.7993600E+00,-2.9687036E+00
-4.7992000E+00,-2.9486031E+00
-4.7990400E+00,-2.9687036E+00
-4.7988800E+00,-2.9285026E+00
-4.7987200E+00,-2.9486031E+00
-4.7985600E+00,-2.9687036E+00
-4.7984000E+00,-2.9486031E+00
-4.7982400E+00,-2.9486031E+00
-4.7980800E+00,-2.9285026E+00
-4.7979200E+00,-2.9486031E+00
-4.7977600E+00,-2.9486031E+00
-4.7976000E+00,-2.9888041E+00
-4.7974400E+00,-2.9687036E+00
-4.7972800E+00,-2.9888041E+00
-4.7971200E+00,-2.9687036E+00
-4.7969600E+00,-2.9687036E+00
-4.7968000E+00,-2.9687036E+00
-4.7966400E+00,-2.9687036E+00
-4.7964800E+00,-2.9687036E+00
-4.7963200E+00,-3.0089046E+00
-4.7961600E+00,-2.9888041E+00
-4.7960000E+00,-2.9888041E+00
-4.7958400E+00,-3.0089046E+00
-4.7956800E+00,-2.9285026E+00
-4.7955200E+00,-2.9486031E+00
-4.7953600E+00,-2.9687036E+00
-4.7952000E+00,-2.9888041E+00
-4.7950400E+00,-2.9687036E+00
-4.7948800E+00,-2.9687036E+00
-4.7947200E+00,-2.9888041E+00
-4.7945600E+00,-2.9888041E+00
-4.7944000E+00,-2.9486031E+00
-4.7942400E+00,-2.9687036E+00
-4.7940800E+00,-2.9486031E+00
-4.7939200E+00,-2.9687036E+00
-4.7937600E+00,-2.9687036E+00
-4.7936000E+00,-2.9888041E+00
-4.7934400E+00,-2.9687036E+00
-4.7932800E+00,-2.9687036E+00
-4.7931200E+00,-2.9888041E+00
-4.7929600E+00,-2.9687036E+00
-4.7928000E+00,-2.9486031E+00
-4.7926400E+00,-2.9486031E+00
-4.7924800E+00,-2.9888041E+00
-4.7923200E+00,-2.9486031E+00
-4.7921600E+00,-2.9486031E+00
-4.7920000E+00,-2.9285026E+00
-4.7918400E+00,-2.9486031E+00
-4.7916800E+00,-2.9486031E+00
-4.7915200E+00,-2.9285026E+00
-4.7913600E+00,-2.9084021E+00
-4.7912000E+00,-2.9486031E+00
-4.7910400E+00,-2.9486031E+00
-4.7908800E+00,-2.9285026E+00
-4.7907200E+00,-2.9084021E+00
-4.7905600E+00,-2.9285026E+00
-4.7904000E+00,-2.9084021E+00
-4.7902400E+00,-2.9084021E+00
-4.7900800E+00,-2.8682011E+00
-4.7899200E+00,-2.9084021E+00
-4.7897600E+00,-2.8883016E+00
-4.7896000E+00,-2.9084021E+00
-4.7894400E+00,-2.9084021E+00
-4.7892800E+00,-2.9084021E+00
-4.7891200E+00,-2.9084021E+00
-4.7889600E+00,-2.9084021E+00
-4.7888000E+00,-2.9084021E+00
-4.7886400E+00,-2.9285026E+00
-4.7884800E+00,-2.8682011E+00
-4.7883200E+00,-2.8682011E+00
-4.7881600E+00,-2.8883016E+00
-4.7880000E+00,-2.8682011E+00
-4.7878400E+00,-2.8883016E+00
-4.7876800E+00,-2.8883016E+00
-4.7875200E+00,-2.8883016E+00
-4.7873600E+00,-2.8883016E+00
-4.7872000E+00,-2.8883016E+00
-4.7870400E+00,-2.8883016E+00
-4.7868800E+00,-2.8883016E+00
-4.7867200E+00,-2.8481006E+00
-4.7865600E+00,-2.8481006E+00
-4.7864000E+00,-2.8481006E+00
-4.7862400E+00,-2.8682011E+00
-4.7860800E+00,-2.8682011E+00
-4.7859200E+00,-2.8883016E+00
-4.7857600E+00,-2.8682011E+00
-4.7856000E+00,-2.8883016E+00
-4.7854400E+00,-2.8682011E+00
-4.7852800E+00,-2.8682011E+00
-4.7851200E+00,-2.8883016E+00
-4.7849600E+00,-2.8682011E+00
-4.7848000E+00,-2.8481006E+00
-4.7846400E+00,-2.8682011E+00
-4.7844800E+00,-2.8883016E+00
-4.7843200E+00,-2.8682011E+00
-4.7841600E+00,-2.8682011E+00
-4.7840000E+00,-2.8883016E+00
-4.7838400E+00,-2.8682011E+00
-4.7836800E+00,-2.9084021E+00
-4.7835200E+00,-2.8682011E+00
-4.7833600E+00,-2.8682011E+00
-4.7832000E+00,-2.8883016E+00
-4.7830400E+00,-2.8682011E+00
-4.7828800E+00,-2.9084021E+00
-4.7827200E+00,-2.9084021E+00
-4.7825600E+00,-2.8682011E+00
-4.7824000E+00,-2.9285026E+00
-4.7822400E+00,-2.9084021E+00
-4.7820800E+00,-2.8883016E+00
-4.7819200E+00,-2.9084021E+00
-4.7817600E+00,-2.8883016E+00
-4.7816000E+00,-2.9084021E+00
-4.7814400E+00,-2.9285026E+00
-4.7812800E+00,-2.8883016E+00
-4.7811200E+00,-2.9285026E+00
-4.7809600E+00,-2.9084021E+00
-4.7808000E+00,-2.9285026E+00
-4.7806400E+00,-2.9486031E+00
-4.7804800E+00,-2.9084021E+00
-4.7803200E+00,-2.9486031E+00
-4.7801600E+00,-2.9285026E+00
-4.7800000E+00,-2.9486031E+00
-4.7798400E+00,-2.9486031E+00
-4.7796800E+00,-2.9285026E+00
-4.7795200E+00,-2.9486031E+00
-4.7793600E+00,-2.9888041E+00
-4.7792000E+00,-2.9888041E+00
-4.7790400E+00,-2.9687036E+00
-4.7788800E+00,-2.9285026E+00
-4.7787200E+00,-2.9687036E+00
-4.7785600E+00,-2.9687036E+00
-4.7784000E+00,-2.9486031E+00
-4.7782400E+00,-2.9486031E+00
-4.7780800E+00,-2.9486031E+00
-4.7779200E+00,-2.9687036E+00
-4.7777600E+00,-2.9687036E+00
-4.7776000E+00,-2.9888041E+00
-4.7774400E+00,-2.9687036E+00
-4.7772800E+00,-2.9687036E+00
-4.7771200E+00,-2.9285026E+00
-4.7769600E+00,-2.9486031E+00
-4.7768000E+00,-2.9285026E+00
-4.7766400E+00,-2.9687036E+00
-4.7764800E+00,-2.9687036E+00
-4.7763200E+00,-2.9888041E+00
-4.7761600E+00,-3.0089046E+00
-4.7760000E+00,-2.9687036E+00
-4.7758400E+00,-2.9486031E+00
-4.7756800E+00,-2.9888041E+00
-4.7755200E+00,-2.9888041E+00
-4.7753600E+00,-2.9888041E+00
-4.7752000E+00,-2.9687036E+00
-4.7750400E+00,-2.9486031E+00
-4.7748800E+00,-2.9687036E+00
-4.7747200E+00,-2.9687036E+00
-4.7745600E+00,-2.9888041E+00
-4.7744000E+00,-2.9687036E+00
-4.7742400E+00,-2.9687036E+00
-4.7740800E+00,-2.9888041E+00
-4.7739200E+00,-2.9888041E+00
-4.7737600E+00,-2.9888041E+00
-4.7736000E+00,-2.9888041E+00
-4.7734400E+00,-2.9687036E+00
-4.7732800E+00,-2.9486031E+00
-4.7731200E+00,-2.9888041E+00
-4.7729600E+00,-2.9687036E+00
-4.7728000E+00,-2.9687036E+00
-4.7726400E+00,-2.9687036E+00
-4.7724800E+00,-2.9687036E+00
-4.7723200E+00,-2.9486031E+00
-4.7721600E+00,-2.9687036E+00
-4.7720000E+00,-2.9486031E+00
-4.7718400E+00,-2.9084021E+00
-4.7716800E+00,-2.9687036E+00
-4.7715200E+00,-2.9285026E+00
-4.7713600E+00,-2.9285026E+00
-4.7712000E+00,-2.9285026E+00
-4.7710400E+00,-2.9285026E+00
-4.7708800E+00,-2.9285026E+00
-4.7707200E+00,-2.9285026E+00
-4.7705600E+00,-2.9285026E+00
-4.7704000E+00,-2.8883016E+00
-4.7702400E+00,-2.9084021E+00
-4.7700800E+00,-2.9084021E+00
-4.7699200E+00,-2.8883016E+00
-4.7697600E+00,-2.9084021E+00
-4.7696000E+00,-2.9084021E+00
-4.7694400E+00,-2.9084021E+00
-4.7692800E+00,-2.9285026E+00
-4.7691200E+00,-2.9285026E+00
-4.7689600E+00,-2.9084021E+00
-4.7688000E+00,-2.8682011E+00
-4.7686400E+00,-2.8883016E+00
-4.7684800E+00,-2.9084021E+00
-4.7683200E+00,-2.8481006E+00
-4.7681600E+00,-2.8481006E+00
-4.7680000E+00,-2.8883016E+00
-4.7678400E+00,-2.8682011E+00
-4.7676800E+00,-2.8682011E+00
-4.7675200E+00,-2.9084021E+00
-4.7673600E+00,-2.8682011E+00
-4.7672000E+00,-2.9084021E+00
-4.7670400E+00,-2.8682011E+00
-4.7668800E+00,-2.8682011E+00
-4.7667200E+00,-2.8481006E+00
-4.7665600E+00,-2.8280001E+00
-4.7664000E+00,-2.9084021E+00
-4.7662400E+00,-2.9084021E+00
-4.7660800E+00,-2.8481006E+00
-4.7659200E+00,-2.8682011E+00
-4.7657600E+00,-2.8883016E+00
-4.7656000E+00,-2.8883016E+00
-4.7654400E+00,-2.9084021E+00
-4.7652800E+00,-2.8883016E+00
-4.7651200E+00,-2.8682011E+00
-4.7649600E+00,-2.8883016E+00
-4.7648000E+00,-2.8481006E+00
-4.7646400E+00,-2.8682011E+00
-4.7644800E+00,-2.8883016E+00
-4.7643200E+00,-2.9084021E+00
-4.7641600E+00,-2.8682011E+00
-4.7640000E+00,-2.8481006E+00
-4.7638400E+00,-2.8682011E+00
-4.7636800E+00,-2.8481006E+00
-4.7635200E+00,-2.8682011E+00
-4.7633600E+00,-2.8682011E+00
-4.7632000E+00,-2.8883016E+00
-4.7630400E+00,-2.8883016E+00
-4.7628800E+00,-2.8883016E+00
-4.7627200E+00,-2.9084021E+00
-4.7625600E+00,-2.9084021E+00
-4.7624000E+00,-2.9084021E+00
-4.7622400E+00,-2.9084021E+00
-4.7620800E+00,-2.8883016E+00
-4.7619200E+00,-2.9084021E+00
-4.7617600E+00,-2.8883016E+00
-4.7616000E+00,-2.9285026E+00
-4.7614400E+00,-2.9084021E+00
-4.7612800E+00,-2.9285026E+00
-4.7611200E+00,-2.9285026E+00
-4.7609600E+00,-2.9084021E+00
-4.7608000E+00,-2.9486031E+00
-4.7606400E+00,-2.9084021E+00
-4.7604800E+00,-2.9486031E+00
-4.7603200E+00,-2.9285026E+00
-4.7601600E+00,-2.9285026E+00
-4.7600000E+00,-2.9285026E+00
-4.7598400E+00,-2.9687036E+00
-4.7596800E+00,-2.9486031E+00
-4.7595200E+00,-2.9486031E+00
-4.7593600E+00,-2.9687036E+00
-4.7592000E+00,-2.9687036E+00
-4.7590400E+00,-2.9687036E+00
-4.7588800E+00,-2.9888041E+00
-4.7587200E+00,-2.9486031E+00
-4.7585600E+00,-2.9687036E+00
-4.7584000E+00,-2.9486031E+00
-4.7582400E+00,-2.9888041E+00
-4.7580800E+00,-2.9888041E+00
-4.7579200E+00,-2.9888041E+00
-4.7577600E+00,-2.9888041E+00
-4.7576000E+00,-2.9486031E+00
-4.7574400E+00,-2.9687036E+00
-4.7572800E+00,-3.0089046E+00
-4.7571200E+00,-2.9687036E+00
-4.7569600E+00,-2.9888041E+00
-4.7568000E+00,-2.9687036E+00
-4.7566400E+00,-3.0290051E+00
-4.7564800E+00,-2.9486031E+00
-4.7563200E+00,-2.9687036E+00
-4.7561600E+00,-2.9687036E+00
-4.7560000E+00,-2.9687036E+00
-4.7558400E+00,-2.9486031E+00
-4.7556800E+00,-2.9486031E+00
-4.7555200E+00,-2.9687036E+00
-4.7553600E+00,-2.9285026E+00
-4.7552000E+00,-2.9687036E+00
-4.7550400E+00,-2.9888041E+00
-4.7548800E+00,-2.9486031E+00
-4.7547200E+00,-2.9687036E+00
-4.7545600E+00,-2.9687036E+00
-4.7544000E+00,-2.9687036E+00
-4.7542400E+00,-2.9687036E+00
-4.7540800E+00,-2.9285026E+00
-4.7539200E+00,-2.9486031E+00
-4.7537600E+00,-2.9687036E+00
-4.7536000E+00,-2.9888041E+00
-4.7534400E+00,-2.9888041E+00
-4.7532800E+00,-2.9486031E+00
-4.7531200E+00,-2.9285026E+00
-4.7529600E+00,-2.9486031E+00
-4.7528000E+00,-2.9486031E+00
-4.7526400E+00,-2.9084021E+00
-4.7524800E+00,-2.9687036E+00
-4.7523200E+00,-2.9687036E+00
-4.7521600E+00,-2.9486031E+00
-4.7520000E+00,-2.9285026E+00
-4.7518400E+00,-2.9687036E+00
-4.7516800E+00,-2.9486031E+00
-4.7515200E+00,-2.9687036E+00
-4.7513600E+00,-2.9285026E+00
-4.7512000E+00,-2.9285026E+00
-4.7510400E+00,-2.9486031E+00
-4.7508800E+00,-2.9285026E+00
-4.7507200E+00,-2.9285026E+00
-4.7505600E+00,-2.9285026E+00
-4.7504000E+00,-2.9084021E+00
-4.7502400E+00,-2.9084021E+00
-4.7500800E+00,-2.9084021E+00
-4.7499200E+00,-2.8682011E+00
-4.7497600E+00,-2.9084021E+00
-4.7496000E+00,-2.9084021E+00
-4.7494400E+00,-2.9084021E+00
-4.7492800E+00,-2.9084021E+00
-4.7491200E+00,-2.9084021E+00
-4.7489600E+00,-2.9084021E+00
-4.7488000E+00,-2.8883016E+00
-4.7486400E+00,-2.8682011E+00
-4.7484800E+00,-2.8883016E+00
-4.7483200E+00,-2.8481006E+00
-4.7481600E+00,-2.8682011E+00
-4.7480000E+00,-2.8883016E+00
-4.7478400E+00,-2.8883016E+00
-4.7476800E+00,-2.8883016E+00
-4.7475200E+00,-2.8682011E+00
-4.7473600E+00,-2.8883016E+00
-4.7472000E+00,-2.9084021E+00
-4.7470400E+00,-2.8481006E+00
-4.7468800E+00,-2.8883016E+00
-4.7467200E+00,-2.8883016E+00
-4.7465600E+00,-2.8682011E+00
-4.7464000E+00,-2.8682011E+00
-4.7462400E+00,-2.8682011E+00
-4.7460800E+00,-2.8682011E+00
-4.7459200E+00,-2.8883016E+00
-4.7457600E+00,-2.8682011E+00
-4.7456000E+00,-2.8682011E+00
-4.7454400E+00,-2.8883016E+00
-4.7452800E+00,-2.8883016E+00
-4.7451200E+00,-2.8682011E+00
-4.7449600E+00,-2.8883016E+00
-4.7448000E+00,-2.8682011E+00
-4.7446400E+00,-2.8883016E+00
-4.7444800E+00,-2.8481006E+00
-4.7443200E+00,-2.8682011E+00
-4.7441600E+00,-2.8682011E+00
-4.7440000E+00,-2.8883016E+00
-4.7438400E+00,-2.8682011E+00
-4.7436800E+00,-2.8682011E+00
-4.7435200E+00,-2.8682011E+00
-4.7433600E+00,-2.8481006E+00
-4.7432000E+00,-2.8481006E+00
-4.7430400E+00,-2.8682011E+00
-4.7428800E+00,-2.9084021E+00
-4.7427200E+00,-2.9084021E+00
-4.7425600E+00,-2.8883016E+00
-4.7424000E+00,-2.8682011E+00
-4.7422400E+00,-2.9084021E+00
-4.7420800E+00,-2.8883016E+00
-4.7419200E+00,-2.9084021E+00
-4.7417600E+00,-2.9084021E+00
-4.7416000E+00,-2.8883016E+00
-4.7414400E+00,-2.9084021E+00
-4.7412800E+00,-2.9084021E+00
-4.7411200E+00,-2.9285026E+00
-4.7409600E+00,-2.9084021E+00
-4.7408000E+00,-2.8883016E+00
-4.7406400E+00,-2.9084021E+00
-4.7404800E+00,-2.9084021E+00
-4.7403200E+00,-2.9486031E+00
-4.7401600E+00,-2.9486031E+00
-4.7400000E+00,-2.9486031E+00
-4.7398400E+00,-2.9486031E+00
-4.7396800E+00,-2.9486031E+00
-4.7395200E+00,-2.9687036E+00
-4.7393600E+00,-2.9486031E+00
-4.7392000E+00,-2.9687036E+00
-4.7390400E+00,-2.9285026E+00
-4.7388800E+00,-2.9687036E+00
-4.7387200E+00,-2.9687036E+00
-4.7385600E+00,-2.9285026E+00
-4.7384000E+00,-2.9285026E+00
-4.7382400E+00,-2.9888041E+00
-4.7380800E+00,-2.9486031E+00
-4.7379200E+00,-2.9687036E+00
-4.7377600E+00,-2.9486031E+00
-4.7376000E+00,-2.9285026E+00
-4.7374400E+00,-2.9687036E+00
-4.7372800E+00,-2.9687036E+00
-4.7371200E+00,-2.9687036E+00
-4.7369600E+00,-2.9687036E+00
-4.7368000E+00,-2.9687036E+00
-4.7366400E+00,-2.9888041E+00
-4.7364800E+00,-3.0089046E+00
-4.7363200E+00,-2.9888041E+00
-4.7361600E+00,-2.9888041E+00
-4.7360000E+00,-2.9888041E+00
-4.7358400E+00,-2.9687036E+00
-4.7356800E+00,-2.9486031E+00
-4.7355200E+00,-2.9687036E+00
-4.7353600E+00,-2.9486031E+00
-4.7352000E+00,-2.9486031E+00
-4.7350400E+00,-2.9888041E+00
-4.7348800E+00,-2.9888041E+00
-4.7347200E+00,-3.0089046E+00
-4.7345600E+00,-3.0089046E+00
-4.7344000E+00,-2.9888041E+00
-4.7342400E+00,-2.9687036E+00
-4.7340800E+00,-2.9888041E+00
-4.7339200E+00,-2.9486031E+00
-4.7337600E+00,-2.9687036E+00
-4.7336000E+00,-3.0089046E+00
-4.7334400E+00,-3.0089046E+00
-4.7332800E+00,-2.9687036E+00
-4.7331200E+00,-2.9888041E+00
-4.7329600E+00,-2.9285026E+00
-4.7328000E+00,-2.9687036E+00
-4.7326400E+00,-2.9888041E+00
-4.7324800E+00,-2.9687036E+00
-4.7323200E+00,-2.9888041E+00
-4.7321600E+00,-2.9687036E+00
-4.7320000E+00,-2.9486031E+00
-4.7318400E+00,-2.9888041E+00
-4.7316800E+00,-2.9285026E+00
-4.7315200E+00,-2.9486031E+00
-4.7313600E+00,-2.9486031E+00
-4.7312000E+00,-2.9285026E+00
-4.7310400E+00,-2.9285026E+00
-4.7308800E+00,-2.9285026E+00
-4.7307200E+00,-2.9285026E+00
-4.7305600E+00,-2.9486031E+00
-4.7304000E+00,-2.9285026E+00
-4.7302400E+00,-2.9285026E+00
-4.7300800E+00,-2.9084021E+00
-4.7299200E+00,-2.9285026E+00
-4.7297600E+00,-2.9084021E+00
-4.7296000E+00,-2.9285026E+00
-4.7294400E+00,-2.9084021E+00
-4.7292800E+00,-2.8883016E+00
-4.7291200E+00,-2.9285026E+00
-4.7289600E+00,-2.8883016E+00
-4.7288000E+00,-2.9084021E+00
-4.7286400E+00,-2.8682011E+00
-4.7284800E+00,-2.8883016E+00
-4.7283200E+00,-2.8883016E+00
-4.7281600E+00,-2.8883016E+00
-4.7280000E+00,-2.8883016E+00
-4.7278400E+00,-2.8883016E+00
-4.7276800E+00,-2.8883016E+00
-4.7275200E+00,-2.8883016E+00
-4.7273600E+00,-2.8682011E+00
-4.7272000E+00,-2.8682011E+00
-4.7270400E+00,-2.8883016E+00
-4.7268800E+00,-2.8682011E+00
-4.7267200E+00,-2.8682011E+00
-4.7265600E+00,-2.8883016E+00
-4.7264000E+00,-2.8883016E+00
-4.7262400E+00,-2.8883016E+00
-4.7260800E+00,-2.8682011E+00
-4.7259200E+00,-2.8883016E+00
-4.7257600E+00,-2.8481006E+00
-4.7256000E+00,-2.8481006E+00
-4.7254400E+00,-2.8682011E+00
-4.7252800E+00,-2.8883016E+00
-4.7251200E+00,-2.8682011E+00
-4.7249600E+00,-2.8682011E+00
-4.7248000E+00,-2.8481006E+00
-4.7246400E+00,-2.8682011E+00
-4.7244800E+00,-2.8682011E+00
-4.7243200E+00,-2.8883016E+00
-4.7241600E+00,-2.8280001E+00
-4.7240000E+00,-2.8682011E+00
-4.7238400E+00,-2.9084021E+00
-4.7236800E+00,-2.8280001E+00
-4.7235200E+00,-2.8481006E+00
-4.7233600E+00,-2.8883016E+00
-4.7232000E+00,-2.8682011E+00
-4.7230400E+00,-2.9084021E+00
-4.7228800E+00,-2.8883016E+00
-4.7227200E+00,-2.9285026E+00
-4.7225600E+00,-2.8682011E+00
-4.7224000E+00,-2.8883016E+00
-4.7222400E+00,-2.8883016E+00
-4.7220800E+00,-2.8883016E+00
-4.7219200E+00,-2.8682011E+00
-4.7217600E+00,-2.8883016E+00
-4.7216000E+00,-2.9084021E+00
-4.7214400E+00,-2.9285026E+00
-4.7212800E+00,-2.9084021E+00
-4.7211200E+00,-2.9285026E+00
-4.7209600E+00,-2.9285026E+00
-4.7208000E+00,-2.9285026E+00
-4.7206400E+00,-2.9285026E+00
-4.7204800E+00,-2.9084021E+00
-4.7203200E+00,-2.9285026E+00
-4.7201600E+00,-2.9084021E+00
-4.7200000E+00,-2.9285026E+00
-4.7198400E+00,-2.9486031E+00
-4.7196800E+00,-2.9285026E+00
-4.7195200E+00,-2.9285026E+00
-4.7193600E+00,-2.9687036E+00
-4.7192000E+00,-2.9285026E+00
-4.7190400E+00,-2.9285026E+00
-4.7188800E+00,-2.9285026E+00
-4.7187200E+00,-2.9687036E+00
-4.7185600E+00,-2.9285026E+00
-4.7184000E+00,-3.0089046E+00
-4.7182400E+00,-2.9687036E+00
-4.7180800E+00,-2.9687036E+00
-4.7179200E+00,-2.9687036E+00
-4.7177600E+00,-2.9486031E+00
-4.7176000E+00,-2.9687036E+00
-4.7174400E+00,-2.9888041E+00
-4.7172800E+00,-3.0089046E+00
-4.7171200E+00,-2.9888041E+00
-4.7169600E+00,-2.9888041E+00
-4.7168000E+00,-2.9687036E+00
-4.7166400E+00,-2.9687036E+00
-4.7164800E+00,-3.0089046E+00
-4.7163200E+00,-2.9687036E+00
-4.7161600E+00,-2.9888041E+00
-4.7160000E+00,-2.9888041E+00
-4.7158400E+00,-2.9687036E+00
-4.7156800E+00,-2.9486031E+00
-4.7155200E+00,-2.9687036E+00
-4.7153600E+00,-2.9687036E+00
-4.7152000E+00,-3.0089046E+00
-4.7150400E+00,-2.9888041E+00
-4.7148800E+00,-2.9486031E+00
-4.7147200E+00,-2.9888041E+00
-4.7145600E+00,-3.0290051E+00
-4.7144000E+00,-2.9687036E+00
-4.7142400E+00,-2.9687036E+00
-4.7140800E+00,-3.0089046E+00
-4.7139200E+00,-2.9486031E+00
-4.7137600E+00,-2.9888041E+00
-4.7136000E+00,-2.9888041E+00
-4.7134400E+00,-2.9486031E+00
-4.7132800E+00,-2.9888041E+00
-4.7131200E+00,-2.9687036E+00
-4.7129600E+00,-2.9687036E+00
-4.7128000E+00,-2.9486031E+00
-4.7126400E+00,-2.9285026E+00
-4.7124800E+00,-2.9687036E+00
-4.7123200E+00,-2.9486031E+00
-4.7121600E+00,-2.9486031E+00
-4.7120000E+00,-2.9285026E+00
-4.7118400E+00,-2.9486031E+00
-4.7116800E+00,-2.9285026E+00
-4.7115200E+00,-2.9285026E+00
-4.7113600E+00,-2.9687036E+00
-4.7112000E+00,-2.9486031E+00
-4.7110400E+00,-2.9084021E+00
-4.7108800E+00,-2.9486031E+00
-4.7107200E+00,-2.9084021E+00
-4.7105600E+00,-2.9084021E+00
-4.7104000E+00,-2.9084021E+00
-4.7102400E+00,-2.9285026E+00
-4.7100800E+00,-2.9084021E+00
-4.7099200E+00,-2.8883016E+00
-4.7097600E+00,-2.9084021E+00
-4.7096000E+00,-2.9084021E+00
-4.7094400E+00,-2.8883016E+00
-4.7092800E+00,-2.8883016E+00
-4.7091200E+00,-2.9084021E+00
-4.7089600E+00,-2.8883016E+00
-4.7088000E+00,-2.8682011E+00
-4.7086400E+00,-2.8682011E+00
-4.7084800E+00,-2.9285026E+00
-4.7083200E+00,-2.9285026E+00
-4.7081600E+00,-2.8883016E+00
-4.7080000E+00,-2.8883016E+00
-4.7078400E+00,-2.8883016E+00
-4.7076800E+00,-2.8883016E+00
-4.7075200E+00,-2.9084021E+00
-4.7073600E+00,-2.9084021E+00
-4.7072000E+00,-2.8682011E+00
-4.7070400E+00,-2.8682011E+00
-4.7068800E+00,-2.8682011E+00
-4.7067200E+00,-2.8883016E+00
-4.7065600E+00,-2.9084021E+00
-4.7064000E+00,-2.8280001E+00
-4.7062400E+00,-2.8682011E+00
-4.7060800E+00,-2.8883016E+00
-4.7059200E+00,-2.8883016E+00
-4.7057600E+00,-2.8682011E+00
-4.7056000E+00,-2.8883016E+00
-4.7054400E+00,-2.8883016E+00
-4.7052800E+00,-2.8682011E+00
-4.7051200E+00,-2.8481006E+00
-4.7049600E+00,-2.9285026E+00
-4.7048000E+00,-2.8883016E+00
-4.7046400E+00,-2.8481006E+00
-4.7044800E+00,-2.8682011E+00
-4.7043200E+00,-2.8682011E+00
-4.7041600E+00,-2.8481006E+00
-4.7040000E+00,-2.8883016E+00
-4.7038400E+00,-2.8682011E+00
-4.7036800E+00,-2.8682011E+00
-4.7035200E+00,-2.8682011E+00
-4.7033600E+00,-2.8883016E+00
-4.7032000E+00,-2.8682011E+00
-4.7030400E+00,-2.8682011E+00
-4.7028800E+00,-2.8883016E+00
-4.7027200E+00,-2.9084021E+00
-4.7025600E+00,-2.9084021E+00
-4.7024000E+00,-2.9084021E+00
-4.7022400E+00,-2.8883016E+00
-4.7020800E+00,-2.8883016E+00
-4.7019200E+00,-2.8481006E+00
-4.7017600E+00,-2.9084021E+00
-4.7016000E+00,-2.8883016E+00
-4.7014400E+00,-2.9084021E+00
-4.7012800E+00,-2.9084021E+00
-4.7011200E+00,-2.8883016E+00
-4.7009600E+00,-2.9285026E+00
-4.7008000E+00,-2.9084021E+00
-4.7006400E+00,-2.9285026E+00
-4.7004800E+00,-2.9285026E+00
-4.7003200E+00,-2.9285026E+00
-4.7001600E+00,-2.9285026E+00
-4.7000000E+00,-2.9285026E+00
-4.6998400E+00,-2.9486031E+00
-4.6996800E+00,-2.9486031E+00
-4.6995200E+00,-2.9687036E+00
-4.6993600E+00,-2.9285026E+00
-4.6992000E+00,-2.9687036E+00
-4.6990400E+00,-2.9687036E+00
-4.6988800E+00,-2.9285026E+00
-4.6987200E+00,-2.9687036E+00
-4.6985600E+00,-2.9285026E+00
-4.6984000E+00,-2.9888041E+00
-4.6982400E+00,-2.9486031E+00
-4.6980800E+00,-2.9687036E+00
-4.6979200E+00,-2.9687036E+00
-4.6977600E+00,-2.9486031E+00
-4.6976000E+00,-2.9888041E+00
-4.6974400E+00,-2.9888041E+00
-4.6972800E+00,-2.9687036E+00
-4.6971200E+00,-2.9486031E+00
-4.6969600E+00,-2.9486031E+00
-4.6968000E+00,-2.9285026E+00
-4.6966400E+00,-2.9687036E+00
-4.6964800E+00,-2.9687036E+00
-4.6963200E+00,-2.9888041E+00
-4.6961600E+00,-2.9687036E+00
-4.6960000E+00,-3.0290051E+00
-4.6958400E+00,-2.9687036E+00
-4.6956800E+00,-2.9687036E+00
-4.6955200E+00,-2.9687036E+00
-4.6953600E+00,-2.9486031E+00
-4.6952000E+00,-3.0089046E+00
-4.6950400E+00,-2.9888041E+00
-4.6948800E+00,-2.9888041E+00
-4.6947200E+00,-2.9888041E+00
-4.6945600E+00,-2.9486031E+00
-4.6944000E+00,-2.9888041E+00
-4.6942400E+00,-2.9486031E+00
-4.6940800E+00,-2.9888041E+00
-4.6939200E+00,-2.9888041E+00
-4.6937600E+00,-2.9888041E+00
-4.6936000E+00,-2.9888041E+00
-4.6934400E+00,-2.9687036E+00
-4.6932800E+00,-2.9486031E+00
-4.6931200E+00,-2.9687036E+00
-4.6929600E+00,-2.9687036E+00
-4.6928000E+00,-2.9687036E+00
-4.6926400E+00,-2.9486031E+00
-4.6924800E+00,-2.9687036E+00
-4.6923200E+00,-2.9687036E+00
-4.6921600E+00,-2.9285026E+00
-4.6920000E+00,-2.9486031E+00
-4.6918400E+00,-2.9486031E+00
-4.6916800E+00,-2.9486031E+00
-4.6915200E+00,-2.9687036E+00
-4.6913600E+00,-2.9084021E+00
-4.6912000E+00,-2.9687036E+00
-4.6910400E+00,-2.9285026E+00
-4.6908800E+00,-2.9285026E+00
-4.6907200E+00,-2.9285026E+00
-4.6905600E+00,-2.9084021E+00
-4.6904000E+00,-2.9285026E+00
-4.6902400E+00,-2.9285026E+00
-4.6900800E+00,-2.9486031E+00
-4.6899200E+00,-2.9084021E+00
-4.6897600E+00,-2.9285026E+00
-4.6896000E+00,-2.9084021E+00
-4.6894400E+00,-2.9285026E+00
-4.6892800E+00,-2.9285026E+00
-4.6891200E+00,-2.9084021E+00
-4.6889600E+00,-2.9285026E+00
-4.6888000E+00,-2.8883016E+00
-4.6886400E+00,-2.8883016E+00
-4.6884800E+00,-2.8682011E+00
-4.6883200E+00,-2.8682011E+00
-4.6881600E+00,-2.9084021E+00
-4.6880000E+00,-2.8883016E+00
-4.6878400E+00,-2.8682011E+00
-4.6876800E+00,-2.8883016E+00
-4.6875200E+00,-2.8682011E+00
-4.6873600E+00,-2.9084021E+00
-4.6872000E+00,-2.9084021E+00
-4.6870400E+00,-2.8682011E+00
-4.6868800E+00,-2.8883016E+00
-4.6867200E+00,-2.8883016E+00
-4.6865600E+00,-2.8682011E+00
-4.6864000E+00,-2.8682011E+00
-4.6862400E+00,-2.8883016E+00
-4.6860800E+00,-2.8682011E+00
-4.6859200E+00,-2.8682011E+00
-4.6857600E+00,-2.8481006E+00
-4.6856000E+00,-2.9084021E+00
-4.6854400E+00,-2.8883016E+00
-4.6852800E+00,-2.9084021E+00
-4.6851200E+00,-2.8682011E+00
-4.6849600E+00,-2.8682011E+00
-4.6848000E+00,-2.8883016E+00
-4.6846400E+00,-2.8682011E+00
-4.6844800E+00,-2.8682011E+00
-4.6843200E+00,-2.8682011E+00
-4.6841600E+00,-2.8682011E+00
-4.6840000E+00,-2.8481006E+00
-4.6838400E+00,-2.8883016E+00
-4.6836800E+00,-2.8883016E+00
-4.6835200E+00,-2.8682011E+00
-4.6833600E+00,-2.8883016E+00
-4.6832000E+00,-2.8883016E+00
-4.6830400E+00,-2.9084021E+00
-4.6828800E+00,-2.9084021E+00
-4.6827200E+00,-2.8682011E+00
-4.6825600E+00,-2.8883016E+00
-4.6824000E+00,-2.8883016E+00
-4.6822400E+00,-2.8883016E+00
-4.6820800E+00,-2.9285026E+00
-4.6819200E+00,-2.9084021E+00
-4.6817600E+00,-2.9084021E+00
-4.6816000E+00,-2.9084021E+00
-4.6814400E+00,-2.9084021E+00
-4.6812800E+00,-2.8883016E+00
-4.6811200E+00,-2.9084021E+00
-4.6809600E+00,-2.9285026E+00
-4.6808000E+00,-2.9084021E+00
-4.6806400E+00,-2.9285026E+00
-4.6804800E+00,-2.9285026E+00
-4.6803200E+00,-2.9084021E+00
-4.6801600E+00,-2.9084021E+00
-4.6800000E+00,-2.9687036E+00
-4.6798400E+00,-2.9285026E+00
-4.6796800E+00,-2.9486031E+00
-4.6795200E+00,-2.9888041E+00
-4.6793600E+00,-2.9486031E+00
-4.6792000E+00,-2.9285026E+00
-4.6790400E+00,-2.9486031E+00
-4.6788800E+00,-2.9687036E+00
-4.6787200E+00,-2.9888041E+00
-4.6785600E+00,-2.9687036E+00
-4.6784000E+00,-2.9486031E+00
-4.6782400E+00,-2.9486031E+00
-4.6780800E+00,-2.9285026E+00
-4.6779200E+00,-2.9687036E+00
-4.6777600E+00,-2.9687036E+00
-4.6776000E+00,-2.9486031E+00
-4.6774400E+00,-2.9486031E+00
-4.6772800E+00,-2.9486031E+00
-4.6771200E+00,-2.9687036E+00
-4.6769600E+00,-2.9486031E+00
-4.6768000E+00,-2.9486031E+00
-4.6766400E+00,-2.9888041E+00
-4.6764800E+00,-2.9486031E+00
-4.6763200E+00,-2.9285026E+00
-4.6761600E+00,-2.9888041E+00
-4.6760000E+00,-3.0089046E+00
-4.6758400E+00,-2.9888041E+00
-4.6756800E+00,-2.9687036E+00
-4.6755200E+00,-2.9285026E+00
-4.6753600E+00,-2.9285026E+00
-4.6752000E+00,-2.9285026E+00
-4.6750400E+00,-2.9687036E+00
-4.6748800E+00,-2.9687036E+00
-4.6747200E+00,-2.9888041E+00
-4.6745600E+00,-2.9888041E+00
-4.6744000E+00,-2.9687036E+00
-4.6742400E+00,-3.0089046E+00
-4.6740800E+00,-2.9687036E+00
-4.6739200E+00,-2.9888041E+00
-4.6737600E+00,-2.9687036E+00
-4.6736000E+00,-2.9888041E+00
-4.6734400E+00,-2.9687036E+00
-4.6732800E+00,-2.9888041E+00
-4.6731200E+00,-2.9888041E+00
-4.6729600E+00,-2.9486031E+00
-4.6728000E+00,-2.9486031E+00
-4.6726400E+00,-2.9486031E+00
-4.6724800E+00,-2.9687036E+00
-4.6723200E+00,-2.9486031E+00
-4.6721600E+00,-2.9486031E+00
-4.6720000E+00,-2.9486031E+00
-4.6718400E+00,-2.9084021E+00
-4.6716800E+00,-2.9486031E+00
-4.6715200E+00,-2.9486031E+00
-4.6713600E+00,-2.9486031E+00
-4.6712000E+00,-2.9486031E+00
-4.6710400E+00,-2.9486031E+00
-4.6708800E+00,-2.9285026E+00
-4.6707200E+00,-2.9084021E+00
-4.6705600E+00,-2.9486031E+00
-4.6704000E+00,-2.9285026E+00
-4.6702400E+00,-2.9285026E+00
-4.6700800E+00,-2.9285026E+00
-4.6699200E+00,-2.9285026E+00
-4.6697600E+00,-2.9285026E+00
-4.6696000E+00,-2.8883016E+00
-4.6694400E+00,-2.9084021E+00
-4.6692800E+00,-2.9084021E+00
-4.6691200E+00,-2.8883016E+00
-4.6689600E+00,-2.9084021E+00
-4.6688000E+00,-2.9285026E+00
-4.6686400E+00,-2.9285026E+00
-4.6684800E+00,-2.9084021E+00
-4.6683200E+00,-2.9084021E+00
-4.6681600E+00,-2.9084021E+00
-4.6680000E+00,-2.8883016E+00
-4.6678400E+00,-2.8883016E+00
-4.6676800E+00,-2.8682011E+00
-4.6675200E+00,-2.9084021E+00
-4.6673600E+00,-2.8682011E+00
-4.6672000E+00,-2.9084021E+00
-4.6670400E+00,-2.8682011E+00
-4.6668800E+00,-2.9084021E+00
-4.6667200E+00,-2.9084021E+00
-4.6665600E+00,-2.8481006E+00
-4.6664000E+00,-2.8883016E+00
-4.6662400E+00,-2.8682011E+00
-4.6660800E+00,-2.8481006E+00
-4.6659200E+00,-2.8481006E+00
-4.6657600E+00,-2.8481006E+00
-4.6656000E+00,-2.8682011E+00
-4.6654400E+00,-2.8883016E+00
-4.6652800E+00,-2.8481006E+00
-4.6651200E+00,-2.9084021E+00
-4.6649600E+00,-2.8883016E+00
-4.6648000E+00,-2.8481006E+00
-4.6646400E+00,-2.8883016E+00
-4.6644800E+00,-2.8682011E+00
-4.6643200E+00,-2.8883016E+00
-4.6641600E+00,-2.9084021E+00
-4.6640000E+00,-2.8682011E+00
-4.6638400E+00,-2.8883016E+00
-4.6636800E+00,-2.8883016E+00
-4.6635200E+00,-2.8883016E+00
-4.6633600E+00,-2.8481006E+00
-4.6632000E+00,-2.8682011E+00
-4.6630400E+00,-2.9084021E+00
-4.6628800E+00,-2.8682011E+00
-4.6627200E+00,-2.9084021E+00
-4.6625600E+00,-2.9084021E+00
-4.6624000E+00,-2.8682011E+00
-4.6622400E+00,-2.8883016E+00
-4.6620800E+00,-2.9084021E+00
-4.6619200E+00,-2.9084021E+00
-4.6617600E+00,-2.8883016E+00
-4.6616000E+00,-2.9084021E+00
-4.6614400E+00,-2.8883016E+00
-4.6612800E+00,-2.9084021E+00
-4.6611200E+00,-2.9084021E+00
-4.6609600E+00,-2.9285026E+00
-4.6608000E+00,-2.9486031E+00
-4.6606400E+00,-2.9285026E+00
-4.6604800E+00,-2.9486031E+00
-4.6603200E+00,-2.9084021E+00
-4.6601600E+00,-2.9285026E+00
-4.6600000E+00,-2.9285026E+00
-4.6598400E+00,-2.9687036E+00
-4.6596800E+00,-2.9285026E+00
-4.6595200E+00,-2.9486031E+00
-4.6593600E+00,-2.9687036E+00
-4.6592000E+00,-2.9888041E+00
-4.6590400E+00,-2.9687036E+00
-4.6588800E+00,-2.9285026E+00
-4.6587200E+00,-2.9486031E+00
-4.6585600E+00,-2.9687036E+00
-4.6584000E+00,-2.9687036E+00
-4.6582400E+00,-2.9486031E+00
-4.6580800E+00,-2.9486031E+00
-4.6579200E+00,-2.9687036E+00
-4.6577600E+00,-2.9687036E+00
-4.6576000E+00,-2.9888041E+00
-4.6574400E+00,-2.9888041E+00
-4.6572800E+00,-2.9687036E+00
-4.6571200E+00,-2.9888041E+00
-4.6569600E+00,-2.9486031E+00
-4.6568000E+00,-2.9888041E+00
-4.6566400E+00,-2.9888041E+00
-4.6564800E+00,-3.0089046E+00
-4.6563200E+00,-2.9687036E+00
-4.6561600E+00,-3.0089046E+00
-4.6560000E+00,-2.9888041E+00
-4.6558400E+00,-2.9888041E+00
-4.6556800E+00,-2.9888041E+00
-4.6555200E+00,-2.9888041E+00
-4.6553600E+00,-2.9687036E+00
-4.6552000E+00,-2.9687036E+00
-4.6550400E+00,-2.9888041E+00
-4.6548800E+00,-2.9888041E+00
-4.6547200E+00,-3.0290051E+00
-4.6545600E+00,-2.9486031E+00
-4.6544000E+00,-2.9888041E+00
-4.6542400E+00,-2.9888041E+00
-4.6540800E+00,-3.0089046E+00
-4.6539200E+00,-2.9888041E+00
-4.6537600E+00,-2.9687036E+00
-4.6536000E+00,-2.9888041E+00
-4.6534400E+00,-3.0089046E+00
-4.6532800E+00,-2.9687036E+00
-4.6531200E+00,-2.9888041E+00
-4.6529600E+00,-2.9687036E+00
-4.6528000E+00,-2.9687036E+00
-4.6526400E+00,-2.9687036E+00
-4.6524800E+00,-2.9285026E+00
-4.6523200E+00,-2.9486031E+00
-4.6521600E+00,-2.9486031E+00
-4.6520000E+00,-2.9486031E+00
-4.6518400E+00,-2.9888041E+00
-4.6516800E+00,-2.9687036E+00
-4.6515200E+00,-2.9486031E+00
-4.6513600E+00,-2.9687036E+00
-4.6512000E+00,-2.9285026E+00
-4.6510400E+00,-2.9486031E+00
-4.6508800E+00,-2.9285026E+00
-4.6507200E+00,-2.9285026E+00
-4.6505600E+00,-2.9084021E+00
-4.6504000E+00,-2.9285026E+00
-4.6502400E+00,-2.9486031E+00
-4.6500800E+00,-2.9285026E+00
-4.6499200E+00,-2.9285026E+00
-4.6497600E+00,-2.8883016E+00
-4.6496000E+00,-2.9084021E+00
-4.6494400E+00,-2.9285026E+00
-4.6492800E+00,-2.9486031E+00
-4.6491200E+00,-2.9084021E+00
-4.6489600E+00,-2.9084021E+00
-4.6488000E+00,-2.8883016E+00
-4.6486400E+00,-2.9285026E+00
-4.6484800E+00,-2.9084021E+00
-4.6483200E+00,-2.9084021E+00
-4.6481600E+00,-2.9084021E+00
-4.6480000E+00,-2.8682011E+00
-4.6478400E+00,-2.8682011E+00
-4.6476800E+00,-2.8682011E+00
-4.6475200E+00,-2.8682011E+00
-4.6473600E+00,-2.8682011E+00
-4.6472000E+00,-2.8481006E+00
-4.6470400E+00,-2.9084021E+00
-4.6468800E+00,-2.8883016E+00
-4.6467200E+00,-2.9084021E+00
-4.6465600E+00,-2.8682011E+00
-4.6464000E+00,-2.9084021E+00
-4.6462400E+00,-2.8682011E+00
-4.6460800E+00,-2.8481006E+00
-4.6459200E+00,-2.8682011E+00
-4.6457600E+00,-2.8682011E+00
-4.6456000E+00,-2.8682011E+00
-4.6454400E+00,-2.8682011E+00
-4.6452800E+00,-2.8481006E+00
-4.6451200E+00,-2.8682011E+00
-4.6449600E+00,-2.8883016E+00
-4.6448000E+00,-2.8883016E+00
-4.6446400E+00,-2.8883016E+00
-4.6444800E+00,-2.8682011E+00
-4.6443200E+00,-2.9084021E+00
-4.6441600E+00,-2.8682011E+00
-4.6440000E+00,-2.8883016E+00
-4.6438400E+00,-2.8682011E+00
-4.6436800E+00,-2.8883016E+00
-4.6435200E+00,-2.8883016E+00
-4.6433600E+00,-2.8682011E+00
-4.6432000E+00,-2.8883016E+00
-4.6430400E+00,-2.8883016E+00
-4.6428800E+00,-2.8883016E+00
-4.6427200E+00,-2.8883016E+00
-4.6425600E+00,-2.8883016E+00
-4.6424000E+00,-2.8883016E+00
-4.6422400E+00,-2.8883016E+00
-4.6420800E+00,-2.8883016E+00
-4.6419200E+00,-2.9084021E+00
-4.6417600E+00,-2.9084021E+00
-4.6416000E+00,-2.9084021E+00
-4.6414400E+00,-2.9486031E+00
-4.6412800E+00,-2.9084021E+00
-4.6411200E+00,-2.9084021E+00
-4.6409600E+00,-2.9285026E+00
-4.6408000E+00,-2.9486031E+00
-4.6406400E+00,-2.9084021E+00
-4.6404800E+00,-2.9285026E+00
-4.6403200E+00,-2.9084021E+00
-4.6401600E+00,-2.9285026E+00
-4.6400000E+00,-2.9486031E+00
-4.6398400E+00,-2.9084021E+00
-4.6396800E+00,-2.9486031E+00
-4.6395200E+00,-2.9486031E+00
-4.6393600E+00,-2.9687036E+00
-4.6392000E+00,-2.9687036E+00
-4.6390400E+00,-2.9687036E+00
-4.6388800E+00,-2.9687036E+00
-4.6387200E+00,-2.9687036E+00
-4.6385600E+00,-2.9888041E+00
-4.6384000E+00,-2.9888041E+00
-4.6382400E+00,-2.9084021E+00
-4.6380800E+00,-2.9687036E+00
-4.6379200E+00,-2.9486031E+00
-4.6377600E+00,-2.9687036E+00
-4.6376000E+00,-2.9486031E+00
-4.6374400E+00,-2.9888041E+00
-4.6372800E+00,-2.9888041E+00
-4.6371200E+00,-2.9687036E+00
-4.6369600E+00,-2.9687036E+00
-4.6368000E+00,-2.9486031E+00
-4.6366400E+00,-2.9888041E+00
-4.6364800E+00,-2.9888041E+00
-4.6363200E+00,-2.9687036E+00
-4.6361600E+00,-2.9888041E+00
-4.6360000E+00,-2.9687036E+00
-4.6358400E+00,-2.9888041E+00
-4.6356800E+00,-2.9888041E+00
-4.6355200E+00,-3.0089046E+00
-4.6353600E+00,-2.9687036E+00
-4.6352000E+00,-2.9687036E+00
-4.6350400E+00,-2.9888041E+00
-4.6348800E+00,-2.9687036E+00
-4.6347200E+00,-2.9888041E+00
-4.6345600E+00,-2.9687036E+00
-4.6344000E+00,-2.9285026E+00
-4.6342400E+00,-2.9888041E+00
-4.6340800E+00,-2.9888041E+00
-4.6339200E+00,-2.9888041E+00
-4.6337600E+00,-2.9486031E+00
-4.6336000E+00,-2.9888041E+00
-4.6334400E+00,-2.9687036E+00
-4.6332800E+00,-2.9687036E+00
-4.6331200E+00,-3.0089046E+00
-4.6329600E+00,-2.9486031E+00
-4.6328000E+00,-2.9687036E+00
-4.6326400E+00,-2.9486031E+00
-4.6324800E+00,-2.9687036E+00
-4.6323200E+00,-2.9285026E+00
-4.6321600E+00,-2.9486031E+00
-4.6320000E+00,-2.9687036E+00
-4.6318400E+00,-2.9486031E+00
-4.6316800E+00,-2.9285026E+00
-4.6315200E+00,-2.9285026E+00
-4.6313600E+00,-2.9486031E+00
-4.6312000E+00,-2.9285026E+00
-4.6310400E+00,-2.9285026E+00
-4.6308800E+00,-2.9285026E+00
-4.6307200E+00,-2.9084021E+00
-4.6305600E+00,-2.9285026E+00
-4.6304000E+00,-2.9285026E+00
-4.6302400E+00,-2.9285026E+00
-4.6300800E+00,-2.9285026E+00
-4.6299200E+00,-2.9084021E+00
-4.6297600E+00,-2.8883016E+00
-4.6296000E+00,-2.8883016E+00
-4.6294400E+00,-2.8883016E+00
-4.6292800E+00,-2.9084021E+00
-4.6291200E+00,-2.9285026E+00
-4.6289600E+00,-2.8883016E+00
-4.6288000E+00,-2.8883016E+00
-4.6286400E+00,-2.9285026E+00
-4.6284800E+00,-2.9285026E+00
-4.6283200E+00,-2.9084021E+00
-4.6281600E+00,-2.8883016E+00
-4.6280000E+00,-2.8883016E+00
-4.6278400E+00,-2.9084021E+00
-4.6276800E+00,-2.8883016E+00
-4.6275200E+00,-2.9084021E+00
-4.6273600E+00,-2.8682011E+00
-4.6272000E+00,-2.8682011E+00
-4.6270400E+00,-2.8682011E+00
-4.6268800E+00,-2.8682011E+00
-4.6267200E+00,-2.8883016E+00
-4.6265600E+00,-2.8682011E+00
-4.6264000E+00,-2.8883016E+00
-4.6262400E+00,-2.8481006E+00
-4.6260800E+00,-2.8883016E+00
-4.6259200E+00,-2.8682011E+00
-4.6257600E+00,-2.8682011E+00
-4.6256000E+00,-2.8682011E+00
-4.6254400E+00,-2.9084021E+00
-4.6252800E+00,-2.9084021E+00
-4.6251200E+00,-2.8481006E+00
-4.6249600E+00,-2.8682011E+00
-4.6248000E+00,-2.8883016E+00
-4.6246400E+00,-2.8682011E+00
-4.6244800E+00,-2.8883016E+00
-4.6243200E+00,-2.8883016E+00
-4.6241600E+00,-2.8682011E+00
-4.6240000E+00,-2.8682011E+00
-4.6238400E+00,-2.9084021E+00
-4.6236800E+00,-2.8883016E+00
-4.6235200E+00,-2.8682011E+00
-4.6233600E+00,-2.8883016E+00
-4.6232000E+00,-2.9084021E+00
-4.6230400E+00,-2.8883016E+00
-4.6228800E+00,-2.8883016E+00
-4.6227200E+00,-2.9084021E+00
-4.6225600E+00,-2.8883016E+00
-4.6224000E+00,-2.9084021E+00
-4.6222400E+00,-2.9084021E+00
-4.6220800E+00,-2.9084021E+00
-4.6219200E+00,-2.8883016E+00
-4.6217600E+00,-2.8883016E+00
-4.6216000E+00,-2.8883016E+00
-4.6214400E+00,-2.9285026E+00
-4.6212800E+00,-2.9285026E+00
-4.6211200E+00,-2.9285026E+00
-4.6209600E+00,-2.8883016E+00
-4.6208000E+00,-2.9285026E+00
-4.6206400E+00,-2.9285026E+00
-4.6204800E+00,-2.9285026E+00
-4.6203200E+00,-2.9285026E+00
-4.6201600E+00,-2.9687036E+00
-4.6200000E+00,-2.9084021E+00
-4.6198400E+00,-2.9285026E+00
-4.6196800E+00,-2.9687036E+00
-4.6195200E+00,-2.9285026E+00
-4.6193600E+00,-2.9285026E+00
-4.6192000E+00,-2.9486031E+00
-4.6190400E+00,-2.9486031E+00
-4.6188800E+00,-2.9486031E+00
-4.6187200E+00,-2.9486031E+00
-4.6185600E+00,-2.9687036E+00
-4.6184000E+00,-2.9687036E+00
-4.6182400E+00,-2.9486031E+00
-4.6180800E+00,-2.9486031E+00
-4.6179200E+00,-2.9687036E+00
-4.6177600E+00,-2.9486031E+00
-4.6176000E+00,-2.9486031E+00
-4.6174400E+00,-2.9687036E+00
-4.6172800E+00,-2.9486031E+00
-4.6171200E+00,-2.9486031E+00
-4.6169600E+00,-2.9486031E+00
-4.6168000E+00,-2.9687036E+00
-4.6166400E+00,-2.9888041E+00
-4.6164800E+00,-2.9687036E+00
-4.6163200E+00,-2.9687036E+00
-4.6161600E+00,-2.9888041E+00
-4.6160000E+00,-2.9687036E+00
-4.6158400E+00,-2.9888041E+00
-4.6156800E+00,-2.9285026E+00
-4.6155200E+00,-2.9888041E+00
-4.6153600E+00,-2.9486031E+00
-4.6152000E+00,-3.0089046E+00
-4.6150400E+00,-2.9687036E+00
-4.6148800E+00,-3.0089046E+00
-4.6147200E+00,-2.9486031E+00
-4.6145600E+00,-3.0089046E+00
-4.6144000E+00,-2.9687036E+00
-4.6142400E+00,-2.9888041E+00
-4.6140800E+00,-2.9888041E+00
-4.6139200E+00,-2.9687036E+00
-4.6137600E+00,-3.0290051E+00
-4.6136000E+00,-2.9687036E+00
-4.6134400E+00,-2.9888041E+00
-4.6132800E+00,-2.9687036E+00
-4.6131200E+00,-2.9888041E+00
-4.6129600E+00,-2.9888041E+00
-4.6128000E+00,-2.9687036E+00
-4.6126400E+00,-2.9687036E+00
-4.6124800E+00,-2.9486031E+00
-4.6123200E+00,-2.9486031E+00
-4.6121600E+00,-2.9486031E+00
-4.6120000E+00,-2.9486031E+00
-4.6118400E+00,-2.9687036E+00
-4.6116800E+00,-2.9888041E+00
-4.6115200E+00,-2.9486031E+00
-4.6113600E+00,-2.9285026E+00
-4.6112000E+00,-2.9084021E+00
-4.6110400E+00,-2.9687036E+00
-4.6108800E+00,-2.9285026E+00
-4.6107200E+00,-2.9285026E+00
-4.6105600E+00,-2.8883016E+00
-4.6104000E+00,-2.9285026E+00
-4.6102400E+00,-2.9486031E+00
-4.6100800E+00,-2.9285026E+00
-4.6099200E+00,-2.9285026E+00
-4.6097600E+00,-2.9084021E+00
-4.6096000E+00,-2.9084021E+00
-4.6094400E+00,-2.9285026E+00
-4.6092800E+00,-2.9084021E+00
-4.6091200E+00,-2.9084021E+00
-4.6089600E+00,-2.9084021E+00
-4.6088000E+00,-2.8883016E+00
-4.6086400E+00,-2.8883016E+00
-4.6084800E+00,-2.9084021E+00
-4.6083200E+00,-2.9285026E+00
-4.6081600E+00,-2.8883016E+00
-4.6080000E+00,-2.8883016E+00
-4.6078400E+00,-2.8883016E+00
-4.6076800E+00,-2.9084021E+00
-4.6075200E+00,-2.8883016E+00
-4.6073600E+00,-2.8883016E+00
-4.6072000E+00,-2.8883016E+00
-4.6070400E+00,-2.8682011E+00
-4.6068800E+00,-2.8481006E+00
-4.6067200E+00,-2.8682011E+00
-4.6065600E+00,-2.8883016E+00
-4.6064000E+00,-2.8682011E+00
-4.6062400E+00,-2.8682011E+00
-4.6060800E+00,-2.8682011E+00
-4.6059200E+00,-2.8883016E+00
-4.6057600E+00,-2.8682011E+00
-4.6056000E+00,-2.8481006E+00
-4.6054400E+00,-2.8682011E+00
-4.6052800E+00,-2.8883016E+00
-4.6051200E+00,-2.8883016E+00
-4.6049600E+00,-2.8883016E+00
-4.6048000E+00,-2.8682011E+00
-4.6046400E+00,-2.8682011E+00
-4.6044800E+00,-2.8883016E+00
-4.6043200E+00,-2.8481006E+00
-4.6041600E+00,-2.9084021E+00
-4.6040000E+00,-2.8883016E+00
-4.6038400E+00,-2.8883016E+00
-4.6036800E+00,-2.8682011E+00
-4.6035200E+00,-2.8883016E+00
-4.6033600E+00,-2.9084021E+00
-4.6032000E+00,-2.8682011E+00
-4.6030400E+00,-2.8682011E+00
-4.6028800E+00,-2.9084021E+00
-4.6027200E+00,-2.8883016E+00
-4.6025600E+00,-2.8883016E+00
-4.6024000E+00,-2.9084021E+00
-4.6022400E+00,-2.8883016E+00
-4.6020800E+00,-2.8883016E+00
-4.6019200E+00,-2.8883016E+00
-4.6017600E+00,-2.8883016E+00
-4.6016000E+00,-2.9084021E+00
-4.6014400E+00,-2.9084021E+00
-4.6012800E+00,-2.8883016E+00
-4.6011200E+00,-2.9285026E+00
-4.6009600E+00,-2.9084021E+00
-4.6008000E+00,-2.9084021E+00
-4.6006400E+00,-2.9285026E+00
-4.6004800E+00,-2.9486031E+00
-4.6003200E+00,-2.9084021E+00
-4.6001600E+00,-2.9285026E+00
-4.6000000E+00,-2.9486031E+00
-4.5998400E+00,-2.9486031E+00
-4.5996800E+00,-2.9084021E+00
-4.5995200E+00,-2.9285026E+00
-4.5993600E+00,-2.9084021E+00
-4.5992000E+00,-2.9285026E+00
-4.5990400E+00,-2.9486031E+00
-4.5988800E+00,-2.9888041E+00
-4.5987200E+00,-2.9486031E+00
-4.5985600E+00,-2.9486031E+00
-4.5984000E+00,-2.9687036E+00
-4.5982400E+00,-2.9888041E+00
-4.5980800E+00,-2.9888041E+00
-4.5979200E+00,-2.9486031E+00
-4.5977600E+00,-2.9687036E+00
-4.5976000E+00,-2.9687036E+00
-4.5974400E+00,-2.9486031E+00
-4.5972800E+00,-2.9687036E+00
-4.5971200E+00,-2.9687036E+00
-4.5969600E+00,-2.9687036E+00
-4.5968000E+00,-2.9285026E+00
-4.5966400E+00,-2.9687036E+00
-4.5964800E+00,-2.9888041E+00
-4.5963200E+00,-2.9687036E+00
-4.5961600E+00,-2.9486031E+00
-4.5960000E+00,-2.9285026E+00
-4.5958400E+00,-2.9687036E+00
-4.5956800E+00,-2.9687036E+00
-4.5955200E+00,-2.9888041E+00
-4.5953600E+00,-3.0089046E+00
-4.5952000E+00,-2.9888041E+00
-4.5950400E+00,-2.9687036E+00
-4.5948800E+00,-2.9888041E+00
-4.5947200E+00,-2.9888041E+00
-4.5945600E+00,-2.9486031E+00
-4.5944000E+00,-2.9687036E+00
-4.5942400E+00,-2.9888041E+00
-4.5940800E+00,-2.9687036E+00
-4.5939200E+00,-2.9687036E+00
-4.5937600E+00,-2.9486031E+00
-4.5936000E+00,-2.9687036E+00
-4.5934400E+00,-2.9888041E+00
-4.5932800E+00,-2.9687036E+00
-4.5931200E+00,-2.9687036E+00
-4.5929600E+00,-2.9687036E+00
-4.5928000E+00,-2.9486031E+00
-4.5926400E+00,-2.9687036E+00
-4.5924800E+00,-2.9486031E+00
-4.5923200E+00,-2.9687036E+00
-4.5921600E+00,-2.9687036E+00
-4.5920000E+00,-2.9486031E+00
-4.5918400E+00,-2.9486031E+00
-4.5916800E+00,-2.9486031E+00
-4.5915200E+00,-2.9687036E+00
-4.5913600E+00,-2.9486031E+00
-4.5912000E+00,-2.9285026E+00
-4.5910400E+00,-2.9486031E+00
-4.5908800E+00,-2.9486031E+00
-4.5907200E+00,-2.9285026E+00
-4.5905600E+00,-2.9285026E+00
-4.5904000E+00,-2.9084021E+00
-4.5902400E+00,-2.9486031E+00
-4.5900800E+00,-2.9285026E+00
-4.5899200E+00,-2.8883016E+00
-4.5897600E+00,-2.9285026E+00
-4.5896000E+00,-2.8682011E+00
-4.5894400E+00,-2.9285026E+00
-4.5892800E+00,-2.9084021E+00
-4.5891200E+00,-2.8883016E+00
-4.5889600E+00,-2.9084021E+00
-4.5888000E+00,-2.9084021E+00
-4.5886400E+00,-2.8682011E+00
-4.5884800E+00,-2.9285026E+00
-4.5883200E+00,-2.8883016E+00
-4.5881600E+00,-2.8883016E+00
-4.5880000E+00,-2.8883016E+00
-4.5878400E+00,-2.8682011E+00
-4.5876800E+00,-2.8883016E+00
-4.5875200E+00,-2.8883016E+00
-4.5873600E+00,-2.8682011E+00
-4.5872000E+00,-2.8682011E+00
-4.5870400E+00,-2.8883016E+00
-4.5868800E+00,-2.9285026E+00
-4.5867200E+00,-2.9084021E+00
-4.5865600E+00,-2.8883016E+00
-4.5864000E+00,-2.9084021E+00
-4.5862400E+00,-2.9285026E+00
-4.5860800E+00,-2.8682011E+00
-4.5859200E+00,-2.8682011E+00
-4.5857600E+00,-2.8481006E+00
-4.5856000E+00,-2.8682011E+00
-4.5854400E+00,-2.9084021E+00
-4.5852800E+00,-2.8682011E+00
-4.5851200E+00,-2.8682011E+00
-4.5849600E+00,-2.8883016E+00
-4.5848000E+00,-2.9084021E+00
-4.5846400E+00,-2.8883016E+00
-4.5844800E+00,-2.8682011E+00
-4.5843200E+00,-2.8682011E+00
-4.5841600E+00,-2.9084021E+00
-4.5840000E+00,-2.8883016E+00
-4.5838400E+00,-2.8883016E+00
-4.5836800E+00,-2.8682011E+00
-4.5835200E+00,-2.8883016E+00
-4.5833600E+00,-2.8682011E+00
-4.5832000E+00,-2.8883016E+00
-4.5830400E+00,-2.8883016E+00
-4.5828800E+00,-2.8883016E+00
-4.5827200E+00,-2.8883016E+00
-4.5825600E+00,-2.8682011E+00
-4.5824000E+00,-2.8883016E+00
-4.5822400E+00,-2.8682011E+00
-4.5820800E+00,-2.9084021E+00
-4.5819200E+00,-2.8883016E+00
-4.5817600E+00,-2.9084021E+00
-4.5816000E+00,-2.9084021E+00
-4.5814400E+00,-2.8883016E+00
-4.5812800E+00,-2.9084021E+00
-4.5811200E+00,-2.9084021E+00
-4.5809600E+00,-2.9285026E+00
-4.5808000E+00,-2.9084021E+00
-4.5806400E+00,-2.9285026E+00
-4.5804800E+00,-2.9084021E+00
-4.5803200E+00,-2.9486031E+00
-4.5801600E+00,-2.9285026E+00
-4.5800000E+00,-2.9285026E+00
-4.5798400E+00,-2.9486031E+00
-4.5796800E+00,-2.9486031E+00
-4.5795200E+00,-2.9687036E+00
-4.5793600E+00,-2.9687036E+00
-4.5792000E+00,-2.9486031E+00
-4.5790400E+00,-2.9687036E+00
-4.5788800E+00,-2.9687036E+00
-4.5787200E+00,-2.9888041E+00
-4.5785600E+00,-2.9687036E+00
-4.5784000E+00,-2.9687036E+00
-4.5782400E+00,-2.9687036E+00
-4.5780800E+00,-2.9687036E+00
-4.5779200E+00,-2.9888041E+00
-4.5777600E+00,-2.9687036E+00
-4.5776000E+00,-2.9486031E+00
-4.5774400E+00,-2.9687036E+00
-4.5772800E+00,-2.9486031E+00
-4.5771200E+00,-2.9888041E+00
-4.5769600E+00,-2.9687036E+00
-4.5768000E+00,-2.9486031E+00
-4.5766400E+00,-2.9888041E+00
-4.5764800E+00,-2.9486031E+00
-4.5763200E+00,-2.9687036E+00
-4.5761600E+00,-2.9486031E+00
-4.5760000E+00,-3.0089046E+00
-4.5758400E+00,-2.9687036E+00
-4.5756800E+00,-3.0089046E+00
-4.5755200E+00,-2.9687036E+00
-4.5753600E+00,-2.9687036E+00
-4.5752000E+00,-2.9486031E+00
-4.5750400E+00,-2.9687036E+00
-4.5748800E+00,-2.9687036E+00
-4.5747200E+00,-3.0089046E+00
-4.5745600E+00,-2.9486031E+00
-4.5744000E+00,-2.9687036E+00
-4.5742400E+00,-2.9687036E+00
-4.5740800E+00,-2.9486031E+00
-4.5739200E+00,-2.9888041E+00
-4.5737600E+00,-2.9486031E+00
-4.5736000E+00,-2.9888041E+00
-4.5734400E+00,-2.9687036E+00
-4.5732800E+00,-2.9687036E+00
-4.5731200E+00,-2.9687036E+00
-4.5729600E+00,-2.9486031E+00
-4.5728000E+00,-2.9486031E+00
-4.5726400E+00,-2.9486031E+00
-4.5724800E+00,-2.9687036E+00
-4.5723200E+00,-2.9888041E+00
-4.5721600E+00,-3.0089046E+00
-4.5720000E+00,-2.9687036E+00
-4.5718400E+00,-2.9687036E+00
-4.5716800E+00,-2.9486031E+00
-4.5715200E+00,-2.9486031E+00
-4.5713600E+00,-2.9486031E+00
-4.5712000E+00,-2.9687036E+00
-4.5710400E+00,-2.9687036E+00
-4.5708800E+00,-2.9285026E+00
-4.5707200E+00,-2.9888041E+00
-4.5705600E+00,-2.9285026E+00
-4.5704000E+00,-2.9084021E+00
-4.5702400E+00,-2.9084021E+00
-4.5700800E+00,-2.9285026E+00
-4.5699200E+00,-2.9084021E+00
-4.5697600E+00,-2.9285026E+00
-4.5696000E+00,-2.9285026E+00
-4.5694400E+00,-2.8883016E+00
-4.5692800E+00,-2.9084021E+00
-4.5691200E+00,-2.9285026E+00
-4.5689600E+00,-2.8883016E+00
-4.5688000E+00,-2.9084021E+00
-4.5686400E+00,-2.9285026E+00
-4.5684800E+00,-2.8883016E+00
-4.5683200E+00,-2.8883016E+00
-4.5681600E+00,-2.8883016E+00
-4.5680000E+00,-2.9084021E+00
-4.5678400E+00,-2.8883016E+00
-4.5676800E+00,-2.8883016E+00
-4.5675200E+00,-2.8883016E+00
-4.5673600E+00,-2.9084021E+00
-4.5672000E+00,-2.9084021E+00
-4.5670400E+00,-2.8883016E+00
-4.5668800E+00,-2.8883016E+00
-4.5667200E+00,-2.8883016E+00
-4.5665600E+00,-2.8682011E+00
-4.5664000E+00,-2.8682011E+00
-4.5662400E+00,-2.8280001E+00
-4.5660800E+00,-2.8481006E+00
-4.5659200E+00,-2.8883016E+00
-4.5657600E+00,-2.8682011E+00
-4.5656000E+00,-2.8883016E+00
-4.5654400E+00,-2.8883016E+00
-4.5652800E+00,-2.8682011E+00
-4.5651200E+00,-2.8682011E+00
-4.5649600E+00,-2.8481006E+00
-4.5648000E+00,-2.8481006E+00
-4.5646400E+00,-2.8682011E+00
-4.5644800E+00,-2.8883016E+00
-4.5643200E+00,-2.8682011E+00
-4.5641600E+00,-2.8883016E+00
-4.5640000E+00,-2.8682011E+00
-4.5638400E+00,-2.8883016E+00
-4.5636800E+00,-2.8883016E+00
-4.5635200E+00,-2.8481006E+00
-4.5633600E+00,-2.8682011E+00
-4.5632000E+00,-2.8682011E+00
-4.5630400E+00,-2.8682011E+00
-4.5628800E+00,-2.8883016E+00
-4.5627200E+00,-2.8883016E+00
-4.5625600E+00,-2.9084021E+00
-4.5624000E+00,-2.8883016E+00
-4.5622400E+00,-2.9084021E+00
-4.5620800E+00,-2.8682011E+00
-4.5619200E+00,-2.8883016E+00
-4.5617600E+00,-2.9084021E+00
-4.5616000E+00,-2.8883016E+00
-4.5614400E+00,-2.8883016E+00
-4.5612800E+00,-2.9285026E+00
-4.5611200E+00,-2.9084021E+00
-4.5609600E+00,-2.9285026E+00
-4.5608000E+00,-2.9084021E+00
-4.5606400E+00,-2.9486031E+00
-4.5604800E+00,-2.9084021E+00
-4.5603200E+00,-2.9084021E+00
-4.5601600E+00,-2.9084021E+00
-4.5600000E+00,-2.9285026E+00
-4.5598400E+00,-2.9486031E+00
-4.5596800E+00,-2.9486031E+00
-4.5595200E+00,-2.9486031E+00
-4.5593600E+00,-2.9486031E+00
-4.5592000E+00,-2.9486031E+00
-4.5590400E+00,-2.9486031E+00
-4.5588800E+00,-2.9486031E+00
-4.5587200E+00,-2.9285026E+00
-4.5585600E+00,-2.9486031E+00
-4.5584000E+00,-2.9285026E+00
-4.5582400E+00,-2.9285026E+00
-4.5580800E+00,-2.9687036E+00
-4.5579200E+00,-2.9687036E+00
-4.5577600E+00,-2.9687036E+00
-4.5576000E+00,-2.9285026E+00
-4.5574400E+00,-3.0089046E+00
-4.5572800E+00,-2.9486031E+00
-4.5571200E+00,-2.9687036E+00
-4.5569600E+00,-2.9486031E+00
-4.5568000E+00,-2.9687036E+00
-4.5566400E+00,-2.9687036E+00
-4.5564800E+00,-2.9687036E+00
-4.5563200E+00,-3.0089046E+00
-4.5561600E+00,-2.9486031E+00
-4.5560000E+00,-2.9687036E+00
-4.5558400E+00,-2.9486031E+00
-4.5556800E+00,-3.0290051E+00
-4.5555200E+00,-2.9888041E+00
-4.5553600E+00,-2.9687036E+00
-4.5552000E+00,-2.9486031E+00
-4.5550400E+00,-2.9687036E+00
-4.5548800E+00,-2.9687036E+00
-4.5547200E+00,-3.0089046E+00
-4.5545600E+00,-2.9687036E+00
-4.5544000E+00,-3.0089046E+00
-4.5542400E+00,-3.0089046E+00
-4.5540800E+00,-2.9486031E+00
-4.5539200E+00,-2.9486031E+00
-4.5537600E+00,-2.9888041E+00
-4.5536000E+00,-2.9687036E+00
-4.5534400E+00,-2.9888041E+00
-4.5532800E+00,-2.9888041E+00
-4.5531200E+00,-2.9888041E+00
-4.5529600E+00,-2.9888041E+00
-4.5528000E+00,-2.9687036E+00
-4.5526400E+00,-2.9486031E+00
-4.5524800E+00,-2.9687036E+00
-4.5523200E+00,-2.9486031E+00
-4.5521600E+00,-2.9285026E+00
-4.5520000E+00,-2.9486031E+00
-4.5518400E+00,-2.9285026E+00
-4.5516800E+00,-2.9285026E+00
-4.5515200E+00,-2.9888041E+00
-4.5513600E+00,-2.9486031E+00
-4.5512000E+00,-2.9486031E+00
-4.5510400E+00,-2.9285026E+00
-4.5508800E+00,-2.9486031E+00
-4.5507200E+00,-2.9486031E+00
-4.5505600E+00,-2.9486031E+00
-4.5504000E+00,-2.9084021E+00
-4.5502400E+00,-2.9084021E+00
-4.5500800E+00,-2.9486031E+00
-4.5499200E+00,-2.9084021E+00
-4.5497600E+00,-2.9084021E+00
-4.5496000E+00,-2.9084021E+00
-4.5494400E+00,-2.9084021E+00
-4.5492800E+00,-2.9084021E+00
-4.5491200E+00,-2.8883016E+00
-4.5489600E+00,-2.8682011E+00
-4.5488000E+00,-2.8883016E+00
-4.5486400E+00,-2.8883016E+00
-4.5484800E+00,-2.9084021E+00
-4.5483200E+00,-2.9285026E+00
-4.5481600E+00,-2.8883016E+00
-4.5480000E+00,-2.8883016E+00
-4.5478400E+00,-2.8883016E+00
-4.5476800E+00,-2.8883016E+00
-4.5475200E+00,-2.8883016E+00
-4.5473600E+00,-2.8682011E+00
-4.5472000E+00,-2.9084021E+00
-4.5470400E+00,-2.8883016E+00
-4.5468800E+00,-2.8682011E+00
-4.5467200E+00,-2.8883016E+00
-4.5465600E+00,-2.8481006E+00
-4.5464000E+00,-2.8883016E+00
-4.5462400E+00,-2.8682011E+00
-4.5460800E+00,-2.8481006E+00
-4.5459200E+00,-2.8682011E+00
-4.5457600E+00,-2.8481006E+00
-4.5456000E+00,-2.8883016E+00
-4.5454400E+00,-2.8682011E+00
-4.5452800E+00,-2.9084021E+00
-4.5451200E+00,-2.8883016E+00
-4.5449600E+00,-2.8883016E+00
-4.5448000E+00,-2.8883016E+00
-4.5446400E+00,-2.8682011E+00
-4.5444800E+00,-2.8481006E+00
-4.5443200E+00,-2.8883016E+00
-4.5441600E+00,-2.8682011E+00
-4.5440000E+00,-2.8682011E+00
-4.5438400E+00,-2.8481006E+00
-4.5436800E+00,-2.8883016E+00
-4.5435200E+00,-2.8682011E+00
-4.5433600E+00,-2.8481006E+00
-4.5432000E+00,-2.8682011E+00
-4.5430400E+00,-2.8682011E+00
-4.5428800E+00,-2.8883016E+00
-4.5427200E+00,-2.8883016E+00
-4.5425600E+00,-2.8682011E+00
-4.5424000E+00,-2.8682011E+00
-4.5422400E+00,-2.9084021E+00
-4.5420800E+00,-2.9084021E+00
-4.5419200E+00,-2.9084021E+00
-4.5417600E+00,-2.8682011E+00
-4.5416000E+00,-2.8883016E+00
-4.5414400E+00,-2.9084021E+00
-4.5412800E+00,-2.8883016E+00
-4.5411200E+00,-2.9084021E+00
-4.5409600E+00,-2.9285026E+00
-4.5408000E+00,-2.9285026E+00
-4.5406400E+00,-2.9285026E+00
-4.5404800E+00,-2.9486031E+00
-4.5403200E+00,-2.9285026E+00
-4.5401600E+00,-2.9486031E+00
-4.5400000E+00,-2.9084021E+00
-4.5398400E+00,-2.9486031E+00
-4.5396800E+00,-2.9285026E+00
-4.5395200E+00,-2.9285026E+00
-4.5393600E+00,-2.9486031E+00
-4.5392000E+00,-2.9285026E+00
-4.5390400E+00,-2.9084021E+00
-4.5388800E+00,-2.9687036E+00
-4.5387200E+00,-2.9687036E+00
-4.5385600E+00,-2.9888041E+00
-4.5384000E+00,-2.9687036E+00
-4.5382400E+00,-2.9285026E+00
-4.5380800E+00,-2.9486031E+00
-4.5379200E+00,-2.9486031E+00
-4.5377600E+00,-2.9687036E+00
-4.5376000E+00,-2.9888041E+00
-4.5374400E+00,-2.9888041E+00
-4.5372800E+00,-3.0089046E+00
-4.5371200E+00,-2.9687036E+00
-4.5369600E+00,-3.0089046E+00
-4.5368000E+00,-3.0089046E+00
-4.5366400E+00,-2.9687036E+00
-4.5364800E+00,-2.9687036E+00
-4.5363200E+00,-2.9687036E+00
-4.5361600E+00,-2.9687036E+00
-4.5360000E+00,-2.9888041E+00
-4.5358400E+00,-2.9687036E+00
-4.5356800E+00,-2.9687036E+00
-4.5355200E+00,-2.9687036E+00
-4.5353600E+00,-2.9888041E+00
-4.5352000E+00,-2.9687036E+00
-4.5350400E+00,-2.9687036E+00
-4.5348800E+00,-2.9687036E+00
-4.5347200E+00,-2.9687036E+00
-4.5345600E+00,-2.9687036E+00
-4.5344000E+00,-2.9687036E+00
-4.5342400E+00,-2.9888041E+00
-4.5340800E+00,-2.9888041E+00
-4.5339200E+00,-2.9687036E+00
-4.5337600E+00,-2.9486031E+00
-4.5336000E+00,-2.9687036E+00
-4.5334400E+00,-2.9687036E+00
-4.5332800E+00,-2.9888041E+00
-4.5331200E+00,-2.9687036E+00
-4.5329600E+00,-2.9888041E+00
-4.5328000E+00,-2.9888041E+00
-4.5326400E+00,-2.9486031E+00
-4.5324800E+00,-2.9486031E+00
-4.5323200E+00,-2.9687036E+00
-4.5321600E+00,-2.9888041E+00
-4.5320000E+00,-2.9687036E+00
-4.5318400E+00,-2.9285026E+00
-4.5316800E+00,-2.9084021E+00
-4.5315200E+00,-2.9285026E+00
-4.5313600E+00,-2.9486031E+00
-4.5312000E+00,-2.9486031E+00
-4.5310400E+00,-2.9285026E+00
-4.5308800E+00,-2.9285026E+00
-4.5307200E+00,-2.9285026E+00
-4.5305600E+00,-2.9285026E+00
-4.5304000E+00,-2.9285026E+00
-4.5302400E+00,-2.9084021E+00
-4.5300800E+00,-2.9084021E+00
-4.5299200E+00,-2.9285026E+00
-4.5297600E+00,-2.8883016E+00
-4.5296000E+00,-2.8883016E+00
-4.5294400E+00,-2.9084021E+00
-4.5292800E+00,-2.9285026E+00
-4.5291200E+00,-2.9084021E+00
-4.5289600E+00,-2.8883016E+00
-4.5288000E+00,-2.9084021E+00
-4.5286400E+00,-2.8883016E+00
-4.5284800E+00,-2.8883016E+00
-4.5283200E+00,-2.9285026E+00
-4.5281600E+00,-2.9084021E+00
-4.5280000E+00,-2.8883016E+00
-4.5278400E+00,-2.8682011E+00
-4.5276800E+00,-2.8883016E+00
-4.5275200E+00,-2.8883016E+00
-4.5273600E+00,-2.9084021E+00
-4.5272000E+00,-2.8481006E+00
-4.5270400E+00,-2.8883016E+00
-4.5268800E+00,-2.9084021E+00
-4.5267200E+00,-2.8682011E+00
-4.5265600E+00,-2.8682011E+00
-4.5264000E+00,-2.8481006E+00
-4.5262400E+00,-2.8883016E+00
-4.5260800E+00,-2.9084021E+00
-4.5259200E+00,-2.9084021E+00
-4.5257600E+00,-2.8682011E+00
-4.5256000E+00,-2.8883016E+00
-4.5254400E+00,-2.8682011E+00
-4.5252800E+00,-2.8883016E+00
-4.5251200E+00,-2.8883016E+00
-4.5249600E+00,-2.9084021E+00
-4.5248000E+00,-2.8682011E+00
-4.5246400E+00,-2.8883016E+00
-4.5244800E+00,-2.8883016E+00
-4.5243200E+00,-2.9084021E+00
-4.5241600E+00,-2.9084021E+00
-4.5240000E+00,-2.8883016E+00
-4.5238400E+00,-2.8883016E+00
-4.5236800E+00,-2.9084021E+00
-4.5235200E+00,-2.8883016E+00
-4.5233600E+00,-2.8682011E+00
-4.5232000E+00,-2.8883016E+00
-4.5230400E+00,-2.8883016E+00
-4.5228800E+00,-2.8883016E+00
-4.5227200E+00,-2.8883016E+00
-4.5225600E+00,-2.8682011E+00
-4.5224000E+00,-2.9084021E+00
-4.5222400E+00,-2.8883016E+00
-4.5220800E+00,-2.9084021E+00
-4.5219200E+00,-2.8883016E+00
-4.5217600E+00,-2.8883016E+00
-4.5216000E+00,-2.8883016E+00
-4.5214400E+00,-2.9084021E+00
-4.5212800E+00,-2.9084021E+00
-4.5211200E+00,-2.9084021E+00
-4.5209600E+00,-2.8883016E+00
-4.5208000E+00,-2.9084021E+00
-4.5206400E+00,-2.9084021E+00
-4.5204800E+00,-2.9084021E+00
-4.5203200E+00,-2.9084021E+00
-4.5201600E+00,-2.9285026E+00
-4.5200000E+00,-2.9285026E+00
-4.5198400E+00,-2.8883016E+00
-4.5196800E+00,-2.9285026E+00
-4.5195200E+00,-2.9486031E+00
-4.5193600E+00,-2.9486031E+00
-4.5192000E+00,-2.9486031E+00
-4.5190400E+00,-2.9486031E+00
-4.5188800E+00,-2.9687036E+00
-4.5187200E+00,-2.9486031E+00
-4.5185600E+00,-2.9687036E+00
-4.5184000E+00,-2.9285026E+00
-4.5182400E+00,-2.9687036E+00
-4.5180800E+00,-2.9084021E+00
-4.5179200E+00,-2.9486031E+00
-4.5177600E+00,-2.9285026E+00
-4.5176000E+00,-2.9687036E+00
-4.5174400E+00,-2.9888041E+00
-4.5172800E+00,-2.9687036E+00
-4.5171200E+00,-3.0089046E+00
-4.5169600E+00,-2.9687036E+00
-4.5168000E+00,-2.9486031E+00
-4.5166400E+00,-3.0089046E+00
-4.5164800E+00,-2.9888041E+00
-4.5163200E+00,-2.9687036E+00
-4.5161600E+00,-2.9888041E+00
-4.5160000E+00,-2.9486031E+00
-4.5158400E+00,-2.9888041E+00
-4.5156800E+00,-2.9888041E+00
-4.5155200E+00,-2.9888041E+00
-4.5153600E+00,-2.9888041E+00
-4.5152000E+00,-2.9687036E+00
-4.5150400E+00,-2.9687036E+00
-4.5148800E+00,-2.9888041E+00
-4.5147200E+00,-2.9687036E+00
-4.5145600E+00,-3.0089046E+00
-4.5144000E+00,-2.9687036E+00
-4.5142400E+00,-2.9687036E+00
-4.5140800E+00,-2.9687036E+00
-4.5139200E+00,-3.0089046E+00
-4.5137600E+00,-2.9888041E+00
-4.5136000E+00,-2.9888041E+00
-4.5134400E+00,-2.9687036E+00
-4.5132800E+00,-2.9687036E+00
-4.5131200E+00,-2.9888041E+00
-4.5129600E+00,-2.9687036E+00
-4.5128000E+00,-2.9888041E+00
-4.5126400E+00,-2.9687036E+00
-4.5124800E+00,-2.9888041E+00
-4.5123200E+00,-2.9486031E+00
-4.5121600E+00,-2.9888041E+00
-4.5120000E+00,-2.9687036E+00
-4.5118400E+00,-2.9486031E+00
-4.5116800E+00,-2.9687036E+00
-4.5115200E+00,-2.9687036E+00
-4.5113600E+00,-2.9486031E+00
-4.5112000E+00,-2.9486031E+00
-4.5110400E+00,-2.9486031E+00
-4.5108800E+00,-2.9285026E+00
-4.5107200E+00,-2.9285026E+00
-4.5105600E+00,-2.9285026E+00
-4.5104000E+00,-2.9285026E+00
-4.5102400E+00,-2.9084021E+00
-4.5100800E+00,-2.9285026E+00
-4.5099200E+00,-2.9084021E+00
-4.5097600E+00,-2.9285026E+00
-4.5096000E+00,-2.9285026E+00
-4.5094400E+00,-2.9285026E+00
-4.5092800E+00,-2.9486031E+00
-4.5091200E+00,-2.8883016E+00
-4.5089600E+00,-2.9084021E+00
-4.5088000E+00,-2.8883016E+00
-4.5086400E+00,-2.9084021E+00
-4.5084800E+00,-2.9084021E+00
-4.5083200E+00,-2.9084021E+00
-4.5081600E+00,-2.8883016E+00
-4.5080000E+00,-2.8883016E+00
-4.5078400E+00,-2.9084021E+00
-4.5076800E+00,-2.9084021E+00
-4.5075200E+00,-2.8682011E+00
-4.5073600E+00,-2.8883016E+00
-4.5072000E+00,-2.8682011E+00
-4.5070400E+00,-2.8883016E+00
-4.5068800E+00,-2.8481006E+00
-4.5067200E+00,-2.8682011E+00
-4.5065600E+00,-2.8883016E+00
-4.5064000E+00,-2.8682011E+00
-4.5062400E+00,-2.8481006E+00
-4.5060800E+00,-2.8883016E+00
-4.5059200E+00,-2.8682011E+00
-4.5057600E+00,-2.8883016E+00
-4.5056000E+00,-2.8883016E+00
-4.5054400E+00,-2.9084021E+00
-4.5052800E+00,-2.8682011E+00
-4.5051200E+00,-2.8481006E+00
-4.5049600E+00,-2.8883016E+00
-4.5048000E+00,-2.8481006E+00
-4.5046400E+00,-2.8883016E+00
-4.5044800E+00,-2.8682011E+00
-4.5043200E+00,-2.9084021E+00
-4.5041600E+00,-2.8481006E+00
-4.5040000E+00,-2.8481006E+00
-4.5038400E+00,-2.8883016E+00
-4.5036800E+00,-2.8682011E+00
-4.5035200E+00,-2.8682011E+00
-4.5033600E+00,-2.8682011E+00
-4.5032000E+00,-2.8883016E+00
-4.5030400E+00,-2.8682011E+00
-4.5028800E+00,-2.8682011E+00
-4.5027200E+00,-2.8883016E+00
-4.5025600E+00,-2.8682011E+00
-4.5024000E+00,-2.8883016E+00
-4.5022400E+00,-2.8883016E+00
-4.5020800E+00,-2.8883016E+00
-4.5019200E+00,-2.8883016E+00
-4.5017600E+00,-2.9084021E+00
-4.5016000E+00,-2.9084021E+00
-4.5014400E+00,-2.8883016E+00
-4.5012800E+00,-2.9084021E+00
-4.5011200E+00,-2.9285026E+00
-4.5009600E+00,-2.9084021E+00
-4.5008000E+00,-2.8883016E+00
-4.5006400E+00,-2.9084021E+00
-4.5004800E+00,-2.9285026E+00
-4.5003200E+00,-2.9084021E+00
-4.5001600E+00,-2.9285026E+00
-4.5000000E+00,-2.9084021E+00
-4.4998400E+00,-2.9084021E+00
-4.4996800E+00,-2.9486031E+00
-4.4995200E+00,-2.9486031E+00
-4.4993600E+00,-2.9285026E+00
-4.4992000E+00,-2.9285026E+00
-4.4990400E+00,-2.9687036E+00
-4.4988800E+00,-2.9687036E+00
-4.4987200E+00,-2.9486031E+00
-4.4985600E+00,-2.9486031E+00
-4.4984000E+00,-2.9888041E+00
-4.4982400E+00,-2.9486031E+00
-4.4980800E+00,-3.0089046E+00
-4.4979200E+00,-2.9687036E+00
-4.4977600E+00,-2.9687036E+00
-4.4976000E+00,-2.9486031E+00
-4.4974400E+00,-2.9888041E+00
-4.4972800E+00,-2.9687036E+00
-4.4971200E+00,-2.9888041E+00
-4.4969600E+00,-2.9486031E+00
-4.4968000E+00,-2.9687036E+00
-4.4966400E+00,-2.9888041E+00
-4.4964800E+00,-2.9888041E+00
-4.4963200E+00,-3.0089046E+00
-4.4961600E+00,-2.9888041E+00
-4.4960000E+00,-2.9888041E+00
-4.4958400E+00,-3.0089046E+00
-4.4956800E+00,-2.9486031E+00
-4.4955200E+00,-2.9888041E+00
-4.4953600E+00,-2.9687036E+00
-4.4952000E+00,-2.9687036E+00
-4.4950400E+00,-2.9687036E+00
-4.4948800E+00,-2.9687036E+00
-4.4947200E+00,-3.0089046E+00
-4.4945600E+00,-2.9486031E+00
-4.4944000E+00,-2.9486031E+00
-4.4942400E+00,-2.9888041E+00
-4.4940800E+00,-2.9687036E+00
-4.4939200E+00,-2.9888041E+00
-4.4937600E+00,-2.9687036E+00
-4.4936000E+00,-3.0089046E+00
-4.4934400E+00,-2.9888041E+00
-4.4932800E+00,-2.9687036E+00
-4.4931200E+00,-2.9888041E+00
-4.4929600E+00,-2.9687036E+00
-4.4928000E+00,-2.9687036E+00
-4.4926400E+00,-2.9486031E+00
-4.4924800E+00,-2.9285026E+00
-4.4923200E+00,-2.9687036E+00
-4.4921600E+00,-2.9687036E+00
-4.4920000E+00,-2.9486031E+00
-4.4918400E+00,-2.9687036E+00
-4.4916800E+00,-2.9285026E+00
-4.4915200E+00,-2.9486031E+00
-4.4913600E+00,-2.9285026E+00
-4.4912000E+00,-2.9285026E+00
-4.4910400E+00,-2.9486031E+00
-4.4908800E+00,-2.9486031E+00
-4.4907200E+00,-2.9687036E+00
-4.4905600E+00,-2.9285026E+00
-4.4904000E+00,-2.9285026E+00
-4.4902400E+00,-2.9285026E+00
-4.4900800E+00,-2.9486031E+00
-4.4899200E+00,-2.9084021E+00
-4.4897600E+00,-2.9285026E+00
-4.4896000E+00,-2.9084021E+00
-4.4894400E+00,-2.9084021E+00
-4.4892800E+00,-2.9285026E+00
-4.4891200E+00,-2.8883016E+00
-4.4889600E+00,-2.8883016E+00
-4.4888000E+00,-2.8883016E+00
-4.4886400E+00,-2.8883016E+00
-4.4884800E+00,-2.8883016E+00
-4.4883200E+00,-2.8883016E+00
-4.4881600E+00,-2.9084021E+00
-4.4880000E+00,-2.8883016E+00
-4.4878400E+00,-2.9285026E+00
-4.4876800E+00,-2.8682011E+00
-4.4875200E+00,-2.8883016E+00
-4.4873600E+00,-2.8883016E+00
-4.4872000E+00,-2.8883016E+00
-4.4870400E+00,-2.8883016E+00
-4.4868800E+00,-2.8883016E+00
-4.4867200E+00,-2.8883016E+00
-4.4865600E+00,-2.8280001E+00
-4.4864000E+00,-2.8682011E+00
-4.4862400E+00,-2.8883016E+00
-4.4860800E+00,-2.8682011E+00
-4.4859200E+00,-2.8481006E+00
-4.4857600E+00,-2.9084021E+00
-4.4856000E+00,-2.8481006E+00
-4.4854400E+00,-2.8481006E+00
-4.4852800E+00,-2.8883016E+00
-4.4851200E+00,-2.8883016E+00
-4.4849600E+00,-2.8883016E+00
-4.4848000E+00,-2.8280001E+00
-4.4846400E+00,-2.8883016E+00
-4.4844800E+00,-2.8682011E+00
-4.4843200E+00,-2.8682011E+00
-4.4841600E+00,-2.8481006E+00
-4.4840000E+00,-2.9285026E+00
-4.4838400E+00,-2.8883016E+00
-4.4836800E+00,-2.8883016E+00
-4.4835200E+00,-2.8883016E+00
-4.4833600E+00,-2.8682011E+00
-4.4832000E+00,-2.8682011E+00
-4.4830400E+00,-2.8883016E+00
-4.4828800E+00,-2.8682011E+00
-4.4827200E+00,-2.8682011E+00
-4.4825600E+00,-2.8682011E+00
-4.4824000E+00,-2.8682011E+00
-4.4822400E+00,-2.8682011E+00
-4.4820800E+00,-2.8682011E+00
-4.4819200E+00,-2.8682011E+00
-4.4817600E+00,-2.8883016E+00
-4.4816000E+00,-2.9285026E+00
-4.4814400E+00,-2.8883016E+00
-4.4812800E+00,-2.9084021E+00
-4.4811200E+00,-2.9084021E+00
-4.4809600E+00,-2.9084021E+00
-4.4808000E+00,-2.9084021E+00
-4.4806400E+00,-2.9084021E+00
-4.4804800E+00,-2.9084021E+00
-4.4803200E+00,-2.9285026E+00
-4.4801600E+00,-2.9285026E+00
-4.4800000E+00,-2.9285026E+00
-4.4798400E+00,-2.9084021E+00
-4.4796800E+00,-2.9285026E+00
-4.4795200E+00,-2.9486031E+00
-4.4793600E+00,-2.9486031E+00
-4.4792000E+00,-2.9687036E+00
-4.4790400E+00,-2.9486031E+00
-4.4788800E+00,-2.9486031E+00
-4.4787200E+00,-2.9486031E+00
-4.4785600E+00,-2.9687036E+00
-4.4784000E+00,-2.9486031E+00
-4.4782400E+00,-2.9687036E+00
-4.4780800E+00,-3.0089046E+00
-4.4779200E+00,-2.9888041E+00
-4.4777600E+00,-2.9687036E+00
-4.4776000E+00,-2.9888041E+00
-4.4774400E+00,-3.0089046E+00
-4.4772800E+00,-3.0089046E+00
-4.4771200E+00,-2.9687036E+00
-4.4769600E+00,-3.0089046E+00
-4.4768000E+00,-2.9687036E+00
-4.4766400E+00,-2.9888041E+00
-4.4764800E+00,-2.9888041E+00
-4.4763200E+00,-3.0089046E+00
-4.4761600E+00,-2.9888041E+00
-4.4760000E+00,-3.0089046E+00
-4.4758400E+00,-2.9687036E+00
-4.4756800E+00,-2.9687036E+00
-4.4755200E+00,-2.9888041E+00
-4.4753600E+00,-2.9687036E+00
-4.4752000E+00,-3.0089046E+00
-4.4750400E+00,-2.9687036E+00
-4.4748800E+00,-3.0089046E+00
-4.4747200E+00,-2.9888041E+00
-4.4745600E+00,-3.0089046E+00
-4.4744000E+00,-3.0089046E+00
-4.4742400E+00,-2.9888041E+00
-4.4740800E+00,-2.9687036E+00
-4.4739200E+00,-2.9486031E+00
-4.4737600E+00,-2.9888041E+00
-4.4736000E+00,-3.0089046E+00
-4.4734400E+00,-3.0089046E+00
-4.4732800E+00,-2.9687036E+00
-4.4731200E+00,-2.9888041E+00
-4.4729600E+00,-2.9486031E+00
-4.4728000E+00,-2.9687036E+00
-4.4726400E+00,-2.9687036E+00
-4.4724800E+00,-2.9687036E+00
-4.4723200E+00,-2.9687036E+00
-4.4721600E+00,-2.9486031E+00
-4.4720000E+00,-2.9687036E+00
-4.4718400E+00,-2.9687036E+00
-4.4716800E+00,-2.9486031E+00
-4.4715200E+00,-2.9285026E+00
-4.4713600E+00,-2.9285026E+00
-4.4712000E+00,-2.9285026E+00
-4.4710400E+00,-2.9486031E+00
-4.4708800E+00,-2.9687036E+00
-4.4707200E+00,-2.9285026E+00
-4.4705600E+00,-2.9285026E+00
-4.4704000E+00,-2.9285026E+00
-4.4702400E+00,-2.9285026E+00
-4.4700800E+00,-2.9285026E+00
-4.4699200E+00,-2.9486031E+00
-4.4697600E+00,-2.9285026E+00
-4.4696000E+00,-2.8883016E+00
-4.4694400E+00,-2.9285026E+00
-4.4692800E+00,-2.8883016E+00
-4.4691200E+00,-2.9084021E+00
-4.4689600E+00,-2.9084021E+00
-4.4688000E+00,-2.8883016E+00
-4.4686400E+00,-2.8883016E+00
-4.4684800E+00,-2.9084021E+00
-4.4683200E+00,-2.9486031E+00
-4.4681600E+00,-2.8883016E+00
-4.4680000E+00,-2.9084021E+00
-4.4678400E+00,-2.8883016E+00
-4.4676800E+00,-2.8682011E+00
-4.4675200E+00,-2.9084021E+00
-4.4673600E+00,-2.9285026E+00
-4.4672000E+00,-2.8682011E+00
-4.4670400E+00,-2.8682011E+00
-4.4668800E+00,-2.8883016E+00
-4.4667200E+00,-2.8682011E+00
-4.4665600E+00,-2.9084021E+00
-4.4664000E+00,-2.8682011E+00
-4.4662400E+00,-2.8682011E+00
-4.4660800E+00,-2.8481006E+00
-4.4659200E+00,-2.9084021E+00
-4.4657600E+00,-2.9084021E+00
-4.4656000E+00,-2.8883016E+00
-4.4654400E+00,-2.8883016E+00
-4.4652800E+00,-2.8883016E+00
-4.4651200E+00,-2.8682011E+00
-4.4649600E+00,-2.8883016E+00
-4.4648000E+00,-2.8682011E+00
-4.4646400E+00,-2.8682011E+00
-4.4644800E+00,-2.8481006E+00
-4.4643200E+00,-2.8682011E+00
-4.4641600E+00,-2.8682011E+00
-4.4640000E+00,-2.8682011E+00
-4.4638400E+00,-2.8883016E+00
-4.4636800E+00,-2.8682011E+00
-4.4635200E+00,-2.8883016E+00
-4.4633600E+00,-2.8481006E+00
-4.4632000E+00,-2.8883016E+00
-4.4630400E+00,-2.8883016E+00
-4.4628800E+00,-2.8883016E+00
-4.4627200E+00,-2.9084021E+00
-4.4625600E+00,-2.8883016E+00
-4.4624000E+00,-2.8682011E+00
-4.4622400E+00,-2.8883016E+00
-4.4620800E+00,-2.8883016E+00
-4.4619200E+00,-2.8883016E+00
-4.4617600E+00,-2.9084021E+00
-4.4616000E+00,-2.8883016E+00
-4.4614400E+00,-2.9084021E+00
-4.4612800E+00,-2.9084021E+00
-4.4611200E+00,-2.9084021E+00
-4.4609600E+00,-2.9084021E+00
-4.4608000E+00,-2.9285026E+00
-4.4606400E+00,-2.9084021E+00
-4.4604800E+00,-2.9285026E+00
-4.4603200E+00,-2.9084021E+00
-4.4601600E+00,-2.9285026E+00
-4.4600000E+00,-2.9486031E+00
-4.4598400E+00,-2.9285026E+00
-4.4596800E+00,-2.9687036E+00
-4.4595200E+00,-2.9084021E+00
-4.4593600E+00,-2.9687036E+00
-4.4592000E+00,-2.9486031E+00
-4.4590400E+00,-2.9285026E+00
-4.4588800E+00,-2.9486031E+00
-4.4587200E+00,-2.9285026E+00
-4.4585600E+00,-2.9285026E+00
-4.4584000E+00,-2.9687036E+00
-4.4582400E+00,-2.9888041E+00
-4.4580800E+00,-2.9888041E+00
-4.4579200E+00,-2.9687036E+00
-4.4577600E+00,-2.9486031E+00
-4.4576000E+00,-2.9888041E+00
-4.4574400E+00,-2.9687036E+00
-4.4572800E+00,-2.9486031E+00
-4.4571200E+00,-2.9687036E+00
-4.4569600E+00,-2.9687036E+00
-4.4568000E+00,-2.9486031E+00
-4.4566400E+00,-2.9486031E+00
-4.4564800E+00,-2.9687036E+00
-4.4563200E+00,-2.9687036E+00
-4.4561600E+00,-2.9687036E+00
-4.4560000E+00,-3.0089046E+00
-4.4558400E+00,-3.0089046E+00
-4.4556800E+00,-2.9687036E+00
-4.4555200E+00,-2.9687036E+00
-4.4553600E+00,-2.9486031E+00
-4.4552000E+00,-2.9888041E+00
-4.4550400E+00,-2.9486031E+00
-4.4548800E+00,-2.9888041E+00
-4.4547200E+00,-2.9687036E+00
-4.4545600E+00,-3.0089046E+00
-4.4544000E+00,-2.9888041E+00
-4.4542400E+00,-2.9486031E+00
-4.4540800E+00,-2.9687036E+00
-4.4539200E+00,-2.9687036E+00
-4.4537600E+00,-2.9486031E+00
-4.4536000E+00,-2.9687036E+00
-4.4534400E+00,-2.9687036E+00
-4.4532800E+00,-2.9687036E+00
-4.4531200E+00,-3.0089046E+00
-4.4529600E+00,-3.0089046E+00
-4.4528000E+00,-2.9687036E+00
-4.4526400E+00,-2.9486031E+00
-4.4524800E+00,-2.9687036E+00
-4.4523200E+00,-2.9486031E+00
-4.4521600E+00,-2.9687036E+00
-4.4520000E+00,-2.9687036E+00
-4.4518400E+00,-2.9486031E+00
-4.4516800E+00,-2.9687036E+00
-4.4515200E+00,-2.9888041E+00
-4.4513600E+00,-2.9687036E+00
-4.4512000E+00,-2.9486031E+00
-4.4510400E+00,-2.9486031E+00
-4.4508800E+00,-2.9687036E+00
-4.4507200E+00,-2.9285026E+00
-4.4505600E+00,-2.9285026E+00
-4.4504000E+00,-2.9285026E+00
-4.4502400E+00,-2.9084021E+00
-4.4500800E+00,-2.9486031E+00
-4.4499200E+00,-2.9285026E+00
-4.4497600E+00,-2.9285026E+00
-4.4496000E+00,-2.9486031E+00
-4.4494400E+00,-2.9285026E+00
-4.4492800E+00,-2.9285026E+00
-4.4491200E+00,-2.9084021E+00
-4.4489600E+00,-2.9084021E+00
-4.4488000E+00,-2.8883016E+00
-4.4486400E+00,-2.9084021E+00
-4.4484800E+00,-2.9084021E+00
-4.4483200E+00,-2.9084021E+00
-4.4481600E+00,-2.8883016E+00
-4.4480000E+00,-2.8883016E+00
-4.4478400E+00,-2.9084021E+00
-4.4476800E+00,-2.8883016E+00
-4.4475200E+00,-2.8481006E+00
-4.4473600E+00,-2.9084021E+00
-4.4472000E+00,-2.8682011E+00
-4.4470400E+00,-2.9084021E+00
-4.4468800E+00,-2.9084021E+00
-4.4467200E+00,-2.9084021E+00
-4.4465600E+00,-2.8682011E+00
-4.4464000E+00,-2.8682011E+00
-4.4462400E+00,-2.8682011E+00
-4.4460800E+00,-2.9084021E+00
-4.4459200E+00,-2.8682011E+00
-4.4457600E+00,-2.8682011E+00
-4.4456000E+00,-2.9084021E+00
-4.4454400E+00,-2.9084021E+00
-4.4452800E+00,-2.8883016E+00
-4.4451200E+00,-2.8883016E+00
-4.4449600E+00,-2.8883016E+00
-4.4448000E+00,-2.8682011E+00
-4.4446400E+00,-2.8682011E+00
-4.4444800E+00,-2.8883016E+00
-4.4443200E+00,-2.8481006E+00
-4.4441600E+00,-2.8682011E+00
-4.4440000E+00,-2.8883016E+00
-4.4438400E+00,-2.8682011E+00
-4.4436800E+00,-2.9084021E+00
-4.4435200E+00,-2.8280001E+00
-4.4433600E+00,-2.8682011E+00
-4.4432000E+00,-2.8883016E+00
-4.4430400E+00,-2.8682011E+00
-4.4428800E+00,-2.9084021E+00
-4.4427200E+00,-2.8682011E+00
-4.4425600E+00,-2.8883016E+00
-4.4424000E+00,-2.9084021E+00
-4.4422400E+00,-2.8883016E+00
-4.4420800E+00,-2.8883016E+00
-4.4419200E+00,-2.8682011E+00
-4.4417600E+00,-2.8883016E+00
-4.4416000E+00,-2.9285026E+00
-4.4414400E+00,-2.9084021E+00
-4.4412800E+00,-2.9084021E+00
-4.4411200E+00,-2.8883016E+00
-4.4409600E+00,-2.9084021E+00
-4.4408000E+00,-2.9084021E+00
-4.4406400E+00,-2.9084021E+00
-4.4404800E+00,-2.9285026E+00
-4.4403200E+00,-2.8883016E+00
-4.4401600E+00,-2.9486031E+00
-4.4400000E+00,-2.9285026E+00
-4.4398400E+00,-2.9285026E+00
-4.4396800E+00,-2.9084021E+00
-4.4395200E+00,-2.9486031E+00
-4.4393600E+00,-2.9687036E+00
-4.4392000E+00,-2.9285026E+00
-4.4390400E+00,-2.9486031E+00
-4.4388800E+00,-2.9687036E+00
-4.4387200E+00,-2.9687036E+00
-4.4385600E+00,-2.9486031E+00
-4.4384000E+00,-2.9486031E+00
-4.4382400E+00,-2.9687036E+00
-4.4380800E+00,-2.9888041E+00
-4.4379200E+00,-2.9888041E+00
-4.4377600E+00,-2.9486031E+00
-4.4376000E+00,-2.9486031E+00
-4.4374400E+00,-2.9687036E+00
-4.4372800E+00,-2.9285026E+00
-4.4371200E+00,-2.9687036E+00
-4.4369600E+00,-2.9687036E+00
-4.4368000E+00,-2.9486031E+00
-4.4366400E+00,-2.9486031E+00
-4.4364800E+00,-2.9084021E+00
-4.4363200E+00,-2.9888041E+00
-4.4361600E+00,-2.9687036E+00
-4.4360000E+00,-2.9687036E+00
-4.4358400E+00,-2.9687036E+00
-4.4356800E+00,-2.9687036E+00
-4.4355200E+00,-3.0089046E+00
-4.4353600E+00,-2.9687036E+00
-4.4352000E+00,-2.9888041E+00
-4.4350400E+00,-2.9888041E+00
-4.4348800E+00,-2.9687036E+00
-4.4347200E+00,-2.9687036E+00
-4.4345600E+00,-3.0089046E+00
-4.4344000E+00,-3.0089046E+00
-4.4342400E+00,-2.9486031E+00
-4.4340800E+00,-2.9888041E+00
-4.4339200E+00,-2.9687036E+00
-4.4337600E+00,-3.0089046E+00
-4.4336000E+00,-3.0290051E+00
-4.4334400E+00,-2.9888041E+00
-4.4332800E+00,-2.9888041E+00
-4.4331200E+00,-2.9888041E+00
-4.4329600E+00,-2.9687036E+00
-4.4328000E+00,-2.9687036E+00
-4.4326400E+00,-2.9486031E+00
-4.4324800E+00,-2.9486031E+00
-4.4323200E+00,-2.9687036E+00
-4.4321600E+00,-2.9486031E+00
-4.4320000E+00,-2.9486031E+00
-4.4318400E+00,-2.9687036E+00
-4.4316800E+00,-2.9486031E+00
-4.4315200E+00,-2.9486031E+00
-4.4313600E+00,-2.9486031E+00
-4.4312000E+00,-2.9285026E+00
-4.4310400E+00,-2.9486031E+00
-4.4308800E+00,-2.9285026E+00
-4.4307200E+00,-2.9687036E+00
-4.4305600E+00,-2.9285026E+00
-4.4304000E+00,-2.9285026E+00
-4.4302400E+00,-2.9486031E+00
-4.4300800E+00,-2.9285026E+00
-4.4299200E+00,-2.9285026E+00
-4.4297600E+00,-2.9084021E+00
-4.4296000E+00,-2.9486031E+00
-4.4294400E+00,-2.9084021E+00
-4.4292800E+00,-2.9084021E+00
-4.4291200E+00,-2.8883016E+00
-4.4289600E+00,-2.9486031E+00
-4.4288000E+00,-2.9084021E+00
-4.4286400E+00,-2.9084021E+00
-4.4284800E+00,-2.9285026E+00
-4.4283200E+00,-2.8883016E+00
-4.4281600E+00,-2.9084021E+00
-4.4280000E+00,-2.9285026E+00
-4.4278400E+00,-2.9084021E+00
-4.4276800E+00,-2.8883016E+00
-4.4275200E+00,-2.8883016E+00
-4.4273600E+00,-2.8883016E+00
-4.4272000E+00,-2.8883016E+00
-4.4270400E+00,-2.8883016E+00
-4.4268800E+00,-2.8883016E+00
-4.4267200E+00,-2.8883016E+00
-4.4265600E+00,-2.8883016E+00
-4.4264000E+00,-2.8883016E+00
-4.4262400E+00,-2.8682011E+00
-4.4260800E+00,-2.8682011E+00
-4.4259200E+00,-2.8682011E+00
-4.4257600E+00,-2.8682011E+00
-4.4256000E+00,-2.8682011E+00
-4.4254400E+00,-2.8883016E+00
-4.4252800E+00,-2.8883016E+00
-4.4251200E+00,-2.8883016E+00
-4.4249600E+00,-2.8883016E+00
-4.4248000E+00,-2.8883016E+00
-4.4246400E+00,-2.8883016E+00
-4.4244800E+00,-2.8682011E+00
-4.4243200E+00,-2.8883016E+00
-4.4241600E+00,-2.8883016E+00
-4.4240000E+00,-2.8883016E+00
-4.4238400E+00,-2.8682011E+00
-4.4236800E+00,-2.9285026E+00
-4.4235200E+00,-2.8682011E+00
-4.4233600E+00,-2.9084021E+00
-4.4232000E+00,-2.8883016E+00
-4.4230400E+00,-2.8682011E+00
-4.4228800E+00,-2.8883016E+00
-4.4227200E+00,-2.8682011E+00
-4.4225600E+00,-2.9084021E+00
-4.4224000E+00,-2.8883016E+00
-4.4222400E+00,-2.9084021E+00
-4.4220800E+00,-2.8883016E+00
-4.4219200E+00,-2.9084021E+00
-4.4217600E+00,-2.9084021E+00
-4.4216000E+00,-2.9084021E+00
-4.4214400E+00,-2.9084021E+00
-4.4212800E+00,-2.9084021E+00
-4.4211200E+00,-2.8883016E+00
-4.4209600E+00,-2.8883016E+00
-4.4208000E+00,-2.9285026E+00
-4.4206400E+00,-2.9084021E+00
-4.4204800E+00,-2.8883016E+00
-4.4203200E+00,-2.9285026E+00
-4.4201600E+00,-2.9285026E+00
-4.4200000E+00,-2.9285026E+00
-4.4198400E+00,-2.9285026E+00
-4.4196800E+00,-2.9285026E+00
-4.4195200E+00,-2.9084021E+00
-4.4193600E+00,-2.9687036E+00
-4.4192000E+00,-2.9486031E+00
-4.4190400E+00,-2.9687036E+00
-4.4188800E+00,-2.9486031E+00
-4.4187200E+00,-2.9687036E+00
-4.4185600E+00,-2.9486031E+00
-4.4184000E+00,-2.9687036E+00
-4.4182400E+00,-2.9486031E+00
-4.4180800E+00,-2.9687036E+00
-4.4179200E+00,-2.9687036E+00
-4.4177600E+00,-2.9486031E+00
-4.4176000E+00,-2.9888041E+00
-4.4174400E+00,-2.9687036E+00
-4.4172800E+00,-2.9486031E+00
-4.4171200E+00,-3.0089046E+00
-4.4169600E+00,-2.9486031E+00
-4.4168000E+00,-2.9486031E+00
-4.4166400E+00,-2.9687036E+00
-4.4164800E+00,-2.9687036E+00
-4.4163200E+00,-2.9888041E+00
-4.4161600E+00,-2.9486031E+00
-4.4160000E+00,-2.9687036E+00
-4.4158400E+00,-2.9888041E+00
-4.4156800E+00,-2.9687036E+00
-4.4155200E+00,-2.9687036E+00
-4.4153600E+00,-2.9888041E+00
-4.4152000E+00,-2.9687036E+00
-4.4150400E+00,-2.9687036E+00
-4.4148800E+00,-2.9486031E+00
-4.4147200E+00,-2.9687036E+00
-4.4145600E+00,-2.9888041E+00
-4.4144000E+00,-2.9687036E+00
-4.4142400E+00,-2.9888041E+00
-4.4140800E+00,-2.9687036E+00
-4.4139200E+00,-2.9888041E+00
-4.4137600E+00,-2.9687036E+00
-4.4136000E+00,-2.9888041E+00
-4.4134400E+00,-2.9687036E+00
-4.4132800E+00,-2.9687036E+00
-4.4131200E+00,-2.9687036E+00
-4.4129600E+00,-3.0089046E+00
-4.4128000E+00,-2.9486031E+00
-4.4126400E+00,-2.9687036E+00
-4.4124800E+00,-2.9687036E+00
-4.4123200E+00,-2.9687036E+00
-4.4121600E+00,-2.9687036E+00
-4.4120000E+00,-2.9486031E+00
-4.4118400E+00,-2.9888041E+00
-4.4116800E+00,-2.9888041E+00
-4.4115200E+00,-2.9687036E+00
-4.4113600E+00,-3.0089046E+00
-4.4112000E+00,-2.9486031E+00
-4.4110400E+00,-2.9687036E+00
-4.4108800E+00,-2.9486031E+00
-4.4107200E+00,-2.9486031E+00
-4.4105600E+00,-2.9687036E+00
-4.4104000E+00,-2.9285026E+00
-4.4102400E+00,-2.9486031E+00
-4.4100800E+00,-2.9486031E+00
-4.4099200E+00,-2.9486031E+00
-4.4097600E+00,-2.9285026E+00
-4.4096000E+00,-2.9084021E+00
-4.4094400E+00,-2.9285026E+00
-4.4092800E+00,-2.9285026E+00
-4.4091200E+00,-2.9084021E+00
-4.4089600E+00,-2.8883016E+00
-4.4088000E+00,-2.8883016E+00
-4.4086400E+00,-2.9084021E+00
-4.4084800E+00,-2.9084021E+00
-4.4083200E+00,-2.8883016E+00
-4.4081600E+00,-2.8883016E+00
-4.4080000E+00,-2.9084021E+00
-4.4078400E+00,-2.8883016E+00
-4.4076800E+00,-2.8883016E+00
-4.4075200E+00,-2.9084021E+00
-4.4073600E+00,-2.9084021E+00
-4.4072000E+00,-2.9084021E+00
-4.4070400E+00,-2.8682011E+00
-4.4068800E+00,-2.8883016E+00
-4.4067200E+00,-2.9084021E+00
-4.4065600E+00,-2.8682011E+00
-4.4064000E+00,-2.9084021E+00
-4.4062400E+00,-2.8682011E+00
-4.4060800E+00,-2.8883016E+00
-4.4059200E+00,-2.8481006E+00
-4.4057600E+00,-2.8682011E+00
-4.4056000E+00,-2.8682011E+00
-4.4054400E+00,-2.8883016E+00
-4.4052800E+00,-2.8883016E+00
-4.4051200E+00,-2.8682011E+00
-4.4049600E+00,-2.8481006E+00
-4.4048000E+00,-2.8682011E+00
-4.4046400E+00,-2.8682011E+00
-4.4044800E+00,-2.8682011E+00
-4.4043200E+00,-2.8682011E+00
-4.4041600E+00,-2.8883016E+00
-4.4040000E+00,-2.8682011E+00
-4.4038400E+00,-2.8883016E+00
-4.4036800E+00,-2.8682011E+00
-4.4035200E+00,-2.8883016E+00
-4.4033600E+00,-2.9084021E+00
-4.4032000E+00,-2.8682011E+00
-4.4030400E+00,-2.8682011E+00
-4.4028800E+00,-2.9084021E+00
-4.4027200E+00,-2.8883016E+00
-4.4025600E+00,-2.8682011E+00
-4.4024000E+00,-2.8883016E+00
-4.4022400E+00,-2.8682011E+00
-4.4020800E+00,-2.9084021E+00
-4.4019200E+00,-2.8883016E+00
-4.4017600E+00,-2.8682011E+00
-4.4016000E+00,-2.8883016E+00
-4.4014400E+00,-2.9084021E+00
-4.4012800E+00,-2.8883016E+00
-4.4011200E+00,-2.9084021E+00
-4.4009600E+00,-2.9486031E+00
-4.4008000E+00,-2.9285026E+00
-4.4006400E+00,-2.9084021E+00
-4.4004800E+00,-2.9285026E+00
-4.4003200E+00,-2.9285026E+00
-4.4001600E+00,-2.9084021E+00
-4.4000000E+00,-2.9285026E+00
-4.3998400E+00,-2.9486031E+00
-4.3996800E+00,-2.9084021E+00
-4.3995200E+00,-2.9285026E+00
-4.3993600E+00,-2.9084021E+00
-4.3992000E+00,-2.9285026E+00
-4.3990400E+00,-2.9687036E+00
-4.3988800E+00,-2.9486031E+00
-4.3987200E+00,-2.9084021E+00
-4.3985600E+00,-2.9486031E+00
-4.3984000E+00,-2.9888041E+00
-4.3982400E+00,-2.9486031E+00
-4.3980800E+00,-2.9687036E+00
-4.3979200E+00,-2.9285026E+00
-4.3977600E+00,-2.9486031E+00
-4.3976000E+00,-2.9486031E+00
-4.3974400E+00,-2.9486031E+00
-4.3972800E+00,-2.9888041E+00
-4.3971200E+00,-2.9687036E+00
-4.3969600E+00,-2.9486031E+00
-4.3968000E+00,-2.9486031E+00
-4.3966400E+00,-2.9687036E+00
-4.3964800E+00,-2.9687036E+00
-4.3963200E+00,-2.9888041E+00
-4.3961600E+00,-2.9687036E+00
-4.3960000E+00,-3.0089046E+00
-4.3958400E+00,-2.9687036E+00
-4.3956800E+00,-3.0089046E+00
-4.3955200E+00,-2.9888041E+00
-4.3953600E+00,-2.9687036E+00
-4.3952000E+00,-2.9687036E+00
-4.3950400E+00,-2.9888041E+00
-4.3948800E+00,-2.9687036E+00
-4.3947200E+00,-2.9888041E+00
-4.3945600E+00,-2.9888041E+00
-4.3944000E+00,-2.9486031E+00
-4.3942400E+00,-2.9888041E+00
-4.3940800E+00,-3.0089046E+00
-4.3939200E+00,-2.9486031E+00
-4.3937600E+00,-2.9888041E+00
-4.3936000E+00,-2.9687036E+00
-4.3934400E+00,-2.9687036E+00
-4.3932800E+00,-2.9888041E+00
-4.3931200E+00,-2.9687036E+00
-4.3929600E+00,-2.9687036E+00
-4.3928000E+00,-2.9687036E+00
-4.3926400E+00,-2.9888041E+00
-4.3924800E+00,-2.9687036E+00
-4.3923200E+00,-2.9486031E+00
-4.3921600E+00,-2.9687036E+00
-4.3920000E+00,-2.9486031E+00
-4.3918400E+00,-2.9888041E+00
-4.3916800E+00,-2.9285026E+00
-4.3915200E+00,-2.9486031E+00
-4.3913600E+00,-2.9687036E+00
-4.3912000E+00,-2.9486031E+00
-4.3910400E+00,-2.9687036E+00
-4.3908800E+00,-2.9687036E+00
-4.3907200E+00,-2.9486031E+00
-4.3905600E+00,-2.9486031E+00
-4.3904000E+00,-2.9486031E+00
-4.3902400E+00,-2.9486031E+00
-4.3900800E+00,-2.9285026E+00
-4.3899200E+00,-2.9084021E+00
-4.3897600E+00,-2.8883016E+00
-4.3896000E+00,-2.9084021E+00
-4.3894400E+00,-2.9285026E+00
-4.3892800E+00,-2.8883016E+00
-4.3891200E+00,-2.9285026E+00
-4.3889600E+00,-2.8883016E+00
-4.3888000E+00,-2.8682011E+00
-4.3886400E+00,-2.9084021E+00
-4.3884800E+00,-2.9084021E+00
-4.3883200E+00,-2.9084021E+00
-4.3881600E+00,-2.8883016E+00
-4.3880000E+00,-2.9285026E+00
-4.3878400E+00,-2.8481006E+00
-4.3876800E+00,-2.9084021E+00
-4.3875200E+00,-2.9084021E+00
-4.3873600E+00,-2.8883016E+00
-4.3872000E+00,-2.8682011E+00
-4.3870400E+00,-2.8883016E+00
-4.3868800E+00,-2.8883016E+00
-4.3867200E+00,-2.9084021E+00
-4.3865600E+00,-2.8883016E+00
-4.3864000E+00,-2.8682011E+00
-4.3862400E+00,-2.8883016E+00
-4.3860800E+00,-2.8682011E+00
-4.3859200E+00,-2.8883016E+00
-4.3857600E+00,-2.9486031E+00
-4.3856000E+00,-2.8682011E+00
-4.3854400E+00,-2.8481006E+00
-4.3852800E+00,-2.8682011E+00
-4.3851200E+00,-2.8481006E+00
-4.3849600E+00,-2.8682011E+00
-4.3848000E+00,-2.8481006E+00
-4.3846400E+00,-2.8682011E+00
-4.3844800E+00,-2.8682011E+00
-4.3843200E+00,-2.8883016E+00
-4.3841600E+00,-2.8883016E+00
-4.3840000E+00,-2.8682011E+00
-4.3838400E+00,-2.8883016E+00
-4.3836800E+00,-2.8883016E+00
-4.3835200E+00,-2.8682011E+00
-4.3833600E+00,-2.9084021E+00
-4.3832000E+00,-2.8883016E+00
-4.3830400E+00,-2.8883016E+00
-4.3828800E+00,-2.8682011E+00
-4.3827200E+00,-2.8682011E+00
-4.3825600E+00,-2.9084021E+00
-4.3824000E+00,-2.8883016E+00
-4.3822400E+00,-2.8883016E+00
-4.3820800E+00,-2.8883016E+00
-4.3819200E+00,-2.9084021E+00
-4.3817600E+00,-2.8883016E+00
-4.3816000E+00,-2.9084021E+00
-4.3814400E+00,-2.9084021E+00
-4.3812800E+00,-2.8883016E+00
-4.3811200E+00,-2.8883016E+00
-4.3809600E+00,-2.9084021E+00
-4.3808000E+00,-2.9285026E+00
-4.3806400E+00,-2.9084021E+00
-4.3804800E+00,-2.9285026E+00
-4.3803200E+00,-2.9285026E+00
-4.3801600E+00,-2.9486031E+00
-4.3800000E+00,-2.9285026E+00
-4.3798400E+00,-2.9285026E+00
-4.3796800E+00,-2.9285026E+00
-4.3795200E+00,-2.9285026E+00
-4.3793600E+00,-2.9285026E+00
-4.3792000E+00,-2.9285026E+00
-4.3790400E+00,-2.9486031E+00
-4.3788800E+00,-2.9285026E+00
-4.3787200E+00,-2.9486031E+00
-4.3785600E+00,-2.9486031E+00
-4.3784000E+00,-2.9486031E+00
-4.3782400E+00,-2.9687036E+00
-4.3780800E+00,-2.9888041E+00
-4.3779200E+00,-2.9687036E+00
-4.3777600E+00,-2.9486031E+00
-4.3776000E+00,-2.9687036E+00
-4.3774400E+00,-2.9285026E+00
-4.3772800E+00,-2.9687036E+00
-4.3771200E+00,-2.9687036E+00
-4.3769600E+00,-2.9486031E+00
-4.3768000E+00,-2.9687036E+00
-4.3766400E+00,-2.9687036E+00
-4.3764800E+00,-2.9888041E+00
-4.3763200E+00,-2.9486031E+00
-4.3761600E+00,-2.9486031E+00
-4.3760000E+00,-2.9687036E+00
-4.3758400E+00,-2.9687036E+00
-4.3756800E+00,-2.9888041E+00
-4.3755200E+00,-2.9888041E+00
-4.3753600E+00,-2.9687036E+00
-4.3752000E+00,-3.0290051E+00
-4.3750400E+00,-2.9486031E+00
-4.3748800E+00,-2.9888041E+00
-4.3747200E+00,-2.9486031E+00
-4.3745600E+00,-2.9888041E+00
-4.3744000E+00,-2.9888041E+00
-4.3742400E+00,-2.9888041E+00
-4.3740800E+00,-2.9687036E+00
-4.3739200E+00,-2.9888041E+00
-4.3737600E+00,-2.9687036E+00
-4.3736000E+00,-2.9687036E+00
-4.3734400E+00,-2.9888041E+00
-4.3732800E+00,-2.9486031E+00
-4.3731200E+00,-2.9486031E+00
-4.3729600E+00,-2.9888041E+00
-4.3728000E+00,-2.9888041E+00
-4.3726400E+00,-2.9888041E+00
-4.3724800E+00,-2.9687036E+00
-4.3723200E+00,-2.9888041E+00
-4.3721600E+00,-2.9687036E+00
-4.3720000E+00,-2.9486031E+00
-4.3718400E+00,-2.9687036E+00
-4.3716800E+00,-2.9687036E+00
-4.3715200E+00,-2.9888041E+00
-4.3713600E+00,-2.9888041E+00
-4.3712000E+00,-2.9285026E+00
-4.3710400E+00,-2.9687036E+00
-4.3708800E+00,-2.9486031E+00
-4.3707200E+00,-2.9486031E+00
-4.3705600E+00,-2.9285026E+00
-4.3704000E+00,-2.9285026E+00
-4.3702400E+00,-2.8883016E+00
-4.3700800E+00,-2.9486031E+00
-4.3699200E+00,-2.9084021E+00
-4.3697600E+00,-2.9285026E+00
-4.3696000E+00,-2.9084021E+00
-4.3694400E+00,-2.9486031E+00
-4.3692800E+00,-2.9084021E+00
-4.3691200E+00,-2.9084021E+00
-4.3689600E+00,-2.8883016E+00
-4.3688000E+00,-2.9285026E+00
-4.3686400E+00,-2.8883016E+00
-4.3684800E+00,-2.8883016E+00
-4.3683200E+00,-2.8883016E+00
-4.3681600E+00,-2.8883016E+00
-4.3680000E+00,-2.9084021E+00
-4.3678400E+00,-2.8883016E+00
-4.3676800E+00,-2.8682011E+00
-4.3675200E+00,-2.8883016E+00
-4.3673600E+00,-2.8883016E+00
-4.3672000E+00,-2.8883016E+00
-4.3670400E+00,-2.8883016E+00
-4.3668800E+00,-2.8481006E+00
-4.3667200E+00,-2.8481006E+00
-4.3665600E+00,-2.8883016E+00
-4.3664000E+00,-2.8682011E+00
-4.3662400E+00,-2.8883016E+00
-4.3660800E+00,-2.8481006E+00
-4.3659200E+00,-2.8682011E+00
-4.3657600E+00,-2.8883016E+00
-4.3656000E+00,-2.8481006E+00
-4.3654400E+00,-2.8682011E+00
-4.3652800E+00,-2.8883016E+00
-4.3651200E+00,-2.8682011E+00
-4.3649600E+00,-2.8280001E+00
-4.3648000E+00,-2.8883016E+00
-4.3646400E+00,-2.8883016E+00
-4.3644800E+00,-2.8481006E+00
-4.3643200E+00,-2.8883016E+00
-4.3641600E+00,-2.9084021E+00
-4.3640000E+00,-2.9084021E+00
-4.3638400E+00,-2.8682011E+00
-4.3636800E+00,-2.8481006E+00
-4.3635200E+00,-2.8280001E+00
-4.3633600E+00,-2.8883016E+00
-4.3632000E+00,-2.8682011E+00
-4.3630400E+00,-2.8883016E+00
-4.3628800E+00,-2.8682011E+00
-4.3627200E+00,-2.8883016E+00
-4.3625600E+00,-2.9084021E+00
-4.3624000E+00,-2.8682011E+00
-4.3622400E+00,-2.8883016E+00
-4.3620800E+00,-2.8883016E+00
-4.3619200E+00,-2.9084021E+00
-4.3617600E+00,-2.8682011E+00
-4.3616000E+00,-2.8883016E+00
-4.3614400E+00,-2.8883016E+00
-4.3612800E+00,-2.9084021E+00
-4.3611200E+00,-2.9084021E+00
-4.3609600E+00,-2.9285026E+00
-4.3608000E+00,-2.8883016E+00
-4.3606400E+00,-2.8883016E+00
-4.3604800E+00,-2.9084021E+00
-4.3603200E+00,-2.9084021E+00
